/SCAPS Absorption Data - CdS1
/lambda[nm]	alpha[m^-1]
200.00	3.833918e+08
201.00	3.833807e+08
202.00	3.834012e+08
203.00	3.834056e+08
204.00	3.834016e+08
205.00	3.834012e+08
206.00	3.834211e+08
207.00	3.834083e+08
208.00	3.834197e+08
209.00	3.834144e+08
210.00	3.834123e+08
211.00	3.834083e+08
212.00	3.834113e+08
213.00	3.834042e+08
214.00	3.834032e+08
215.00	3.833938e+08
216.00	3.833860e+08
217.00	3.833742e+08
218.00	3.833692e+08
219.00	3.833624e+08
220.00	3.833547e+08
221.00	3.833459e+08
222.00	3.833398e+08
223.00	3.833290e+08
224.00	3.833213e+08
225.00	3.833152e+08
226.00	3.833135e+08
227.00	3.833033e+08
228.00	3.832905e+08
229.00	3.832871e+08
230.00	3.832749e+08
231.00	3.832780e+08
232.00	3.832665e+08
233.00	3.832621e+08
234.00	3.832577e+08
235.00	3.832506e+08
236.00	3.832469e+08
237.00	3.832391e+08
238.00	3.832360e+08
239.00	3.832272e+08
240.00	3.832201e+08
241.00	3.832143e+08
242.00	3.832086e+08
243.00	3.832035e+08
244.00	3.831957e+08
245.00	1.797523e+08
246.00	1.644754e+08
247.00	1.566383e+08
248.00	1.513182e+08
249.00	1.461418e+08
250.00	1.461346e+08
251.00	1.382917e+08
252.00	1.334841e+08
253.00	1.297613e+08
254.00	1.250582e+08
255.00	1.227114e+08
256.00	1.185979e+08
257.00	1.158411e+08
258.00	1.119624e+08
259.00	1.093035e+08
260.00	1.059673e+08
261.00	1.027566e+08
262.00	9.979863e+07
263.00	9.691980e+07
264.00	9.416246e+07
265.00	9.134182e+07
266.00	8.872963e+07
267.00	8.604064e+07
268.00	8.333398e+07
269.00	8.090456e+07
270.00	7.845227e+07
271.00	7.613945e+07
272.00	7.389293e+07
273.00	7.169167e+07
274.00	6.945611e+07
275.00	6.729678e+07
276.00	6.522076e+07
277.00	6.327044e+07
278.00	6.140312e+07
279.00	5.948779e+07
280.00	5.765330e+07
281.00	5.591775e+07
282.00	5.413984e+07
283.00	5.244448e+07
284.00	5.085800e+07
285.00	4.930349e+07
286.00	4.798456e+07
287.00	4.655832e+07
288.00	4.521358e+07
289.00	4.392043e+07
290.00	4.262586e+07
291.00	4.143747e+07
292.00	4.029846e+07
293.00	3.914522e+07
294.00	3.811826e+07
295.00	3.711024e+07
296.00	3.609826e+07
297.00	3.522221e+07
298.00	3.435209e+07
299.00	3.348881e+07
300.00	3.271336e+07
301.00	3.198922e+07
302.00	3.120078e+07
303.00	3.055299e+07
304.00	2.988645e+07
305.00	2.929830e+07
306.00	2.867195e+07
307.00	2.813486e+07
308.00	2.761560e+07
309.00	2.712864e+07
310.00	2.660807e+07
311.00	2.618160e+07
312.00	2.577247e+07
313.00	2.539091e+07
314.00	2.502656e+07
315.00	2.461540e+07
316.00	2.429646e+07
317.00	2.393279e+07
318.00	2.361644e+07
319.00	2.329221e+07
320.00	2.296576e+07
321.00	2.270389e+07
322.00	2.239131e+07
323.00	2.212451e+07
324.00	2.189152e+07
325.00	2.163026e+07
326.00	2.138847e+07
327.00	2.116297e+07
328.00	2.092136e+07
329.00	2.068487e+07
330.00	2.045242e+07
331.00	2.027267e+07
332.00	2.006700e+07
333.00	1.987404e+07
334.00	1.970231e+07
335.00	1.950695e+07
336.00	1.930444e+07
337.00	1.912518e+07
338.00	1.897514e+07
339.00	1.883104e+07
340.00	1.868111e+07
341.00	1.853632e+07
342.00	1.837286e+07
343.00	1.825156e+07
344.00	1.809077e+07
345.00	1.796670e+07
346.00	1.786130e+07
347.00	1.771059e+07
348.00	1.759512e+07
349.00	1.751121e+07
350.00	1.738097e+07
351.00	1.724734e+07
352.00	1.709865e+07
353.00	1.698295e+07
354.00	1.691640e+07
355.00	1.679032e+07
356.00	1.667445e+07
357.00	1.673574e+07
358.00	1.663858e+07
359.00	1.652948e+07
360.00	1.643573e+07
361.00	1.633059e+07
362.00	1.622564e+07
363.00	1.610463e+07
364.00	1.601301e+07
365.00	1.593082e+07
366.00	1.586557e+07
367.00	1.579262e+07
368.00	1.568546e+07
369.00	1.560164e+07
370.00	1.551288e+07
371.00	1.542948e+07
372.00	1.535258e+07
373.00	1.525235e+07
374.00	1.514542e+07
375.00	1.507057e+07
376.00	1.501613e+07
377.00	1.495614e+07
378.00	1.486689e+07
379.00	1.476774e+07
380.00	1.468151e+07
381.00	1.462312e+07
382.00	1.453675e+07
383.00	1.443930e+07
384.00	1.437972e+07
385.00	1.431820e+07
386.00	1.424040e+07
387.00	1.415648e+07
388.00	1.408236e+07
389.00	1.400880e+07
390.00	1.393458e+07
391.00	1.385764e+07
392.00	1.377937e+07
393.00	1.370120e+07
394.00	1.363408e+07
395.00	1.358567e+07
396.00	1.349188e+07
397.00	1.342372e+07
398.00	1.335712e+07
399.00	1.329145e+07
400.00	1.322661e+07
401.00	1.316383e+07
402.00	1.309905e+07
403.00	1.302442e+07
404.00	1.296586e+07
405.00	1.290141e+07
406.00	1.284657e+07
407.00	1.274814e+07
408.00	1.268690e+07
409.00	1.263391e+07
410.00	1.258051e+07
411.00	1.250786e+07
412.00	1.245106e+07
413.00	1.237739e+07
414.00	1.229580e+07
415.00	1.225615e+07
416.00	1.221355e+07
417.00	1.215266e+07
418.00	1.209503e+07
419.00	1.203152e+07
420.00	1.199999e+07
421.00	1.193914e+07
422.00	1.188438e+07
423.00	1.182356e+07
424.00	1.177797e+07
425.00	1.173001e+07
426.00	1.166180e+07
427.00	1.160790e+07
428.00	1.156293e+07
429.00	1.151001e+07
430.00	1.143939e+07
431.00	1.139142e+07
432.00	1.133139e+07
433.00	1.128512e+07
434.00	1.122822e+07
435.00	1.117555e+07
436.00	1.111455e+07
437.00	1.106727e+07
438.00	1.100813e+07
439.00	1.097401e+07
440.00	1.091221e+07
441.00	1.086357e+07
442.00	1.081095e+07
443.00	1.076601e+07
444.00	1.072252e+07
445.00	1.066545e+07
446.00	1.060714e+07
447.00	1.056101e+07
448.00	1.051695e+07
449.00	1.044929e+07
450.00	1.040671e+07
451.00	1.035086e+07
452.00	1.030016e+07
453.00	1.024435e+07
454.00	1.019722e+07
455.00	1.014325e+07
456.00	1.009936e+07
457.00	1.005560e+07
458.00	1.000739e+07
459.00	9.952007e+06
460.00	9.886684e+06
461.00	9.841678e+06
462.00	9.794642e+06
463.00	9.743534e+06
464.00	9.688877e+06
465.00	9.642188e+06
466.00	9.575235e+06
467.00	9.525111e+06
468.00	9.462648e+06
469.00	9.405232e+06
470.00	9.347840e+06
471.00	9.276142e+06
472.00	9.218016e+06
473.00	9.151687e+06
474.00	9.091442e+06
475.00	9.031035e+06
476.00	8.953664e+06
477.00	8.890044e+06
478.00	8.816420e+06
479.00	8.753079e+06
480.00	8.673599e+06
481.00	8.603650e+06
482.00	8.526299e+06
483.00	8.439029e+06
484.00	8.357471e+06
485.00	8.282378e+06
486.00	8.192107e+06
487.00	8.109203e+06
488.00	8.023972e+06
489.00	7.938245e+06
490.00	7.851696e+06
491.00	7.764480e+06
492.00	7.674782e+06
493.00	7.582445e+06
494.00	7.480086e+06
495.00	7.389693e+06
496.00	7.306636e+06
497.00	7.213565e+06
498.00	7.117468e+06
499.00	7.034569e+06
500.00	6.936298e+06
501.00	6.842071e+06
502.00	6.751962e+06
503.00	6.681866e+06
504.00	6.580118e+06
505.00	6.493333e+06
506.00	6.409559e+06
507.00	6.322409e+06
508.00	6.247177e+06
509.00	6.164148e+06
510.00	6.083327e+06
511.00	6.003230e+06
512.00	5.928050e+06
513.00	5.861797e+06
514.00	5.788330e+06
515.00	5.708300e+06
516.00	5.644672e+06
517.00	5.570166e+06
518.00	5.516266e+06
519.00	5.446344e+06
520.00	5.384742e+06
521.00	5.330665e+06
522.00	5.274310e+06
523.00	5.226155e+06
524.00	5.169265e+06
525.00	5.119846e+06
526.00	5.075089e+06
527.00	5.024605e+06
528.00	4.986394e+06
529.00	4.934671e+06
530.00	4.898860e+06
531.00	4.861000e+06
532.00	4.831246e+06
533.00	4.794321e+06
534.00	4.743883e+06
535.00	4.710343e+06
536.00	4.675621e+06
537.00	4.647494e+06
538.00	4.610017e+06
539.00	4.570084e+06
540.00	4.534413e+06
541.00	4.504779e+06
542.00	4.472049e+06
543.00	4.441108e+06
544.00	4.410415e+06
545.00	4.385048e+06
546.00	4.355134e+06
547.00	4.329254e+06
548.00	4.302160e+06
549.00	4.277634e+06
550.00	4.248588e+06
551.00	4.214684e+06
552.00	4.187114e+06
553.00	4.156604e+06
554.00	4.137524e+06
555.00	4.114858e+06
556.00	4.099115e+06
557.00	4.075433e+06
558.00	4.041774e+06
559.00	4.028656e+06
560.00	4.005939e+06
561.00	3.982807e+06
562.00	3.957055e+06
563.00	3.939673e+06
564.00	3.909887e+06
565.00	3.899316e+06
566.00	3.877989e+06
567.00	3.856530e+06
568.00	3.852891e+06
569.00	3.822828e+06
570.00	3.801055e+06
571.00	3.775499e+06
572.00	3.757716e+06
573.00	3.752461e+06
574.00	3.719770e+06
575.00	3.696918e+06
576.00	3.681915e+06
577.00	3.664591e+06
578.00	3.647976e+06
579.00	3.628106e+06
580.00	3.605327e+06
581.00	3.590105e+06
582.00	3.574759e+06
583.00	3.555492e+06
584.00	3.540571e+06
585.00	3.526144e+06
586.00	3.512043e+06
587.00	3.489295e+06
588.00	3.477614e+06
589.00	3.459727e+06
590.00	3.438862e+06
591.00	3.419292e+06
592.00	3.408057e+06
593.00	3.391279e+06
594.00	3.377726e+06
595.00	3.359944e+06
596.00	3.348352e+06
597.00	3.335287e+06
598.00	3.315409e+06
599.00	3.305745e+06
600.00	3.292610e+06
601.00	3.276266e+06
602.00	3.264942e+06
603.00	3.250079e+06
604.00	3.234497e+06
605.00	3.219912e+06
606.00	3.206550e+06
607.00	3.189134e+06
608.00	3.168319e+06
609.00	3.155994e+06
610.00	3.148589e+06
611.00	3.132884e+06
612.00	3.123777e+06
613.00	3.107033e+06
614.00	3.088897e+06
615.00	3.071644e+06
616.00	3.063713e+06
617.00	3.049932e+06
618.00	3.039538e+06
619.00	3.030036e+06
620.00	3.009987e+06
621.00	2.989856e+06
622.00	2.989756e+06
623.00	2.972383e+06
624.00	2.949808e+06
625.00	2.950023e+06
626.00	2.933697e+06
627.00	2.919759e+06
628.00	2.912338e+06
629.00	2.897648e+06
630.00	2.886011e+06
631.00	2.881142e+06
632.00	2.872333e+06
633.00	2.859721e+06
634.00	2.842076e+06
635.00	2.826644e+06
636.00	2.821261e+06
637.00	2.808057e+06
638.00	2.799866e+06
639.00	2.790511e+06
640.00	2.774328e+06
641.00	2.765955e+06
642.00	2.744510e+06
643.00	2.732548e+06
644.00	2.715069e+06
645.00	2.715069e+06
646.00	2.700009e+06
647.00	2.695025e+06
648.00	2.681567e+06
649.00	2.677741e+06
650.00	2.667067e+06
651.00	2.642528e+06
652.00	2.639569e+06
653.00	2.629487e+06
654.00	2.614864e+06
655.00	2.606575e+06
656.00	2.598674e+06
657.00	2.589786e+06
658.00	2.581336e+06
659.00	2.575838e+06
660.00	2.559521e+06
661.00	2.544998e+06
662.00	2.528683e+06
663.00	2.517301e+06
664.00	2.510239e+06
665.00	2.496315e+06
666.00	2.487907e+06
667.00	2.484976e+06
668.00	2.481064e+06
669.00	2.464624e+06
670.00	2.446302e+06
671.00	2.439840e+06
672.00	2.426562e+06
673.00	2.428893e+06
674.00	2.407457e+06
675.00	2.403390e+06
676.00	2.386452e+06
677.00	2.388772e+06
678.00	2.371480e+06
679.00	2.365071e+06
680.00	2.363115e+06
681.00	2.351436e+06
682.00	2.339440e+06
683.00	2.335344e+06
684.00	2.326627e+06
685.00	2.317541e+06
686.00	2.297593e+06
687.00	2.302045e+06
688.00	2.280189e+06
689.00	2.266067e+06
690.00	2.252376e+06
691.00	2.251994e+06
692.00	2.247173e+06
693.00	2.245253e+06
694.00	2.243316e+06
695.00	2.221951e+06
696.00	2.220015e+06
697.00	2.194050e+06
698.00	2.181363e+06
699.00	2.188282e+06
700.00	2.175607e+06
701.00	2.185200e+06
702.00	2.170031e+06
703.00	2.174655e+06
704.00	2.162367e+06
705.00	2.142432e+06
706.00	2.142818e+06
707.00	2.135352e+06
708.00	2.118320e+06
709.00	2.106266e+06
710.00	2.103777e+06
711.00	2.104928e+06
712.00	2.082386e+06
713.00	2.058931e+06
714.00	2.060454e+06
715.00	2.048260e+06
716.00	2.061410e+06
717.00	2.058167e+06
718.00	2.029607e+06
719.00	2.017248e+06
720.00	2.022191e+06
721.00	2.019909e+06
722.00	2.026374e+06
723.00	2.009266e+06
724.00	2.000148e+06
725.00	1.982688e+06
726.00	1.972255e+06
727.00	1.952173e+06
728.00	1.944980e+06
729.00	1.933246e+06
730.00	1.946495e+06
731.00	1.918883e+06
732.00	1.923608e+06
733.00	1.920402e+06
734.00	1.911886e+06
735.00	1.888683e+06
736.00	1.903586e+06
737.00	1.893020e+06
738.00	1.912843e+06
739.00	1.892835e+06
740.00	1.853821e+06
741.00	1.841046e+06
742.00	1.856277e+06
743.00	1.848934e+06
744.00	1.821297e+06
745.00	1.811910e+06
746.00	1.813762e+06
747.00	1.826555e+06
748.00	1.807208e+06
749.00	1.815662e+06
750.00	1.767464e+06
751.00	1.779848e+06
752.00	1.780965e+06
753.00	1.774212e+06
754.00	1.752862e+06
755.00	1.769916e+06
756.00	1.748763e+06
757.00	1.747439e+06
758.00	1.736586e+06
759.00	1.735476e+06
760.00	1.703583e+06
761.00	1.701743e+06
762.00	1.711003e+06
763.00	1.710639e+06
764.00	1.693844e+06
765.00	1.702997e+06
766.00	1.653831e+06
767.00	1.681881e+06
768.00	1.695153e+06
769.00	1.633911e+06
770.00	1.617158e+06
771.00	1.648195e+06
772.00	1.658848e+06
773.00	1.639147e+06
774.00	1.651819e+06
775.00	1.608557e+06
776.00	1.611319e+06
777.00	1.632076e+06
778.00	1.589227e+06
779.00	1.571078e+06
780.00	1.557419e+06
781.00	1.557938e+06
782.00	1.563873e+06
783.00	1.561697e+06
784.00	1.551134e+06
785.00	1.552596e+06
786.00	1.546904e+06
787.00	1.558232e+06
788.00	1.534547e+06
789.00	1.523661e+06
790.00	1.556234e+06
791.00	1.514221e+06
792.00	1.503663e+06
793.00	1.521554e+06
794.00	1.536437e+06
795.00	1.506125e+06
796.00	1.474961e+06
797.00	1.508563e+06
798.00	1.484928e+06
799.00	1.469655e+06
800.00	1.459915e+06
801.00	1.426208e+06
802.00	1.439247e+06
803.00	1.439246e+06
804.00	1.454761e+06
805.00	1.467633e+06
806.00	1.456923e+06
807.00	1.470542e+06
808.00	1.446997e+06
809.00	1.446881e+06
810.00	1.357222e+06
811.00	1.401129e+06
812.00	1.415265e+06
813.00	1.377254e+06
814.00	1.354004e+06
815.00	1.374994e+06
816.00	1.356496e+06
817.00	1.357742e+06
818.00	1.365182e+06
819.00	1.344283e+06
820.00	1.318838e+06
821.00	1.346763e+06
822.00	1.309811e+06
823.00	1.313131e+06
824.00	1.289339e+06
825.00	1.330666e+06
826.00	1.316457e+06
827.00	1.320320e+06
828.00	1.353905e+06
829.00	1.280974e+06
830.00	1.293778e+06
831.00	1.298493e+06
832.00	1.304609e+06
833.00	1.294221e+06
834.00	1.276137e+06
835.00	1.283758e+06
836.00	1.271301e+06
837.00	1.279837e+06
838.00	1.273437e+06
839.00	1.233501e+06
840.00	1.198574e+06
841.00	1.233821e+06
842.00	1.230988e+06
843.00	1.279515e+06
844.00	1.258669e+06
845.00	1.252994e+06
846.00	1.237343e+06
847.00	1.188548e+06
848.00	1.211345e+06
849.00	1.224831e+06
850.00	1.226130e+06
851.00	1.223506e+06
852.00	1.230814e+06
853.00	1.229862e+06
854.00	1.253422e+06
855.00	1.237504e+06
856.00	1.239162e+06
857.00	1.211454e+06
858.00	1.182934e+06
859.00	1.238430e+06
860.00	1.207821e+06
861.00	1.252443e+06
862.00	1.151098e+06
863.00	1.174732e+06
864.00	1.140625e+06
865.00	1.188236e+06
866.00	1.173883e+06
867.00	1.246855e+06
868.00	1.233714e+06
869.00	1.164521e+06
870.00	1.248825e+06
871.00	1.283110e+06
872.00	1.239209e+06
873.00	1.190703e+06
874.00	1.199949e+06
875.00	1.118205e+06
876.00	1.241369e+06
877.00	1.158232e+06
878.00	1.256143e+06
879.00	1.245298e+06
880.00	1.229315e+06
881.00	1.197007e+06
882.00	1.157233e+06
883.00	1.221640e+06
884.00	1.163876e+06
885.00	1.168490e+06
886.00	1.196436e+06
887.00	1.279858e+06
888.00	1.355402e+06
889.00	1.306638e+06
890.00	1.152774e+06
891.00	1.200230e+06
892.00	1.220502e+06
893.00	1.180407e+06
894.00	1.104877e+06
895.00	1.163782e+06
896.00	1.209236e+06
897.00	1.159587e+06
898.00	1.174365e+06
899.00	1.101675e+06
900.00	1.134383e+06
