/SCAPS Absorption Data - CdS1
/lambda[nm]	alpha[m^-1]
245.00	1.865101e+08
246.00	1.712331e+08
247.00	1.633960e+08
248.00	1.580759e+08
249.00	1.528995e+08
250.00	1.528924e+08
251.00	1.450495e+08
252.00	1.402419e+08
253.00	1.365191e+08
254.00	1.318160e+08
255.00	1.294692e+08
256.00	1.253556e+08
257.00	1.225989e+08
258.00	1.187202e+08
259.00	1.160613e+08
260.00	1.127251e+08
261.00	1.095143e+08
262.00	1.065564e+08
263.00	1.036776e+08
264.00	1.009202e+08
265.00	9.809957e+07
266.00	9.548738e+07
267.00	9.279839e+07
268.00	9.009173e+07
269.00	8.766231e+07
270.00	8.521002e+07
271.00	8.289720e+07
272.00	8.065068e+07
273.00	7.844942e+07
274.00	7.621386e+07
275.00	7.405454e+07
276.00	7.197851e+07
277.00	7.002820e+07
278.00	6.816087e+07
279.00	6.624555e+07
280.00	6.441106e+07
281.00	6.267551e+07
282.00	6.089760e+07
283.00	5.920225e+07
284.00	5.761577e+07
285.00	5.606126e+07
286.00	5.474234e+07
287.00	5.331611e+07
288.00	5.197138e+07
289.00	5.067824e+07
290.00	4.938368e+07
291.00	4.819530e+07
292.00	4.705630e+07
293.00	4.590308e+07
294.00	4.487614e+07
295.00	4.386813e+07
296.00	4.285617e+07
297.00	4.198014e+07
298.00	4.111005e+07
299.00	4.024679e+07
300.00	3.947137e+07
301.00	3.874726e+07
302.00	3.795886e+07
303.00	3.731109e+07
304.00	3.664459e+07
305.00	3.605647e+07
306.00	3.543016e+07
307.00	3.489310e+07
308.00	3.437388e+07
309.00	3.388696e+07
310.00	3.336644e+07
311.00	3.294000e+07
312.00	3.253091e+07
313.00	3.214939e+07
314.00	3.178509e+07
315.00	3.137397e+07
316.00	3.105506e+07
317.00	3.069144e+07
318.00	3.037515e+07
319.00	3.005096e+07
320.00	2.972457e+07
321.00	2.946273e+07
322.00	2.915022e+07
323.00	2.888347e+07
324.00	2.865053e+07
325.00	2.838932e+07
326.00	2.814757e+07
327.00	2.792215e+07
328.00	2.768056e+07
329.00	2.744413e+07
330.00	2.721176e+07
331.00	2.703204e+07
332.00	2.682643e+07
333.00	2.663352e+07
334.00	2.646184e+07
335.00	2.626657e+07
336.00	2.606410e+07
337.00	2.588490e+07
338.00	2.573492e+07
339.00	2.559083e+07
340.00	2.544099e+07
341.00	2.529624e+07
342.00	2.513283e+07
343.00	2.501156e+07
344.00	2.485086e+07
345.00	2.472685e+07
346.00	2.462149e+07
347.00	2.447087e+07
348.00	2.435543e+07
349.00	2.427154e+07
350.00	2.414138e+07
351.00	2.400780e+07
352.00	2.385916e+07
353.00	2.374356e+07
354.00	2.367705e+07
355.00	2.355107e+07
356.00	2.343528e+07
357.00	2.332215e+07
358.00	2.322201e+07
359.00	2.311048e+07
360.00	2.301438e+07
361.00	2.290742e+07
362.00	2.279965e+07
363.00	2.267287e+07
364.00	2.258191e+07
365.00	2.249759e+07
366.00	2.243040e+07
367.00	2.235396e+07
368.00	2.224493e+07
369.00	2.215923e+07
370.00	2.206632e+07
371.00	2.198278e+07
372.00	2.190323e+07
373.00	2.179736e+07
374.00	2.168943e+07
375.00	2.160928e+07
376.00	2.155616e+07
377.00	2.149717e+07
378.00	2.140391e+07
379.00	2.129915e+07
380.00	2.120914e+07
381.00	2.115203e+07
382.00	2.106337e+07
383.00	2.096122e+07
384.00	2.090046e+07
385.00	2.083967e+07
386.00	2.075636e+07
387.00	2.066990e+07
388.00	2.059435e+07
389.00	2.051844e+07
390.00	2.044138e+07
391.00	2.036036e+07
392.00	2.027917e+07
393.00	2.020000e+07
394.00	2.012931e+07
395.00	2.008221e+07
396.00	1.998074e+07
397.00	1.990821e+07
398.00	1.984028e+07
399.00	1.977456e+07
400.00	1.970685e+07
401.00	1.964354e+07
402.00	1.957526e+07
403.00	1.949432e+07
404.00	1.943618e+07
405.00	1.937052e+07
406.00	1.931529e+07
407.00	1.920998e+07
408.00	1.914349e+07
409.00	1.908534e+07
410.00	1.903120e+07
411.00	1.895723e+07
412.00	1.889707e+07
413.00	1.882237e+07
414.00	1.873299e+07
415.00	1.869072e+07
416.00	1.865198e+07
417.00	1.858643e+07
418.00	1.852796e+07
419.00	1.845685e+07
420.00	1.842848e+07
421.00	1.836334e+07
422.00	1.830841e+07
423.00	1.824217e+07
424.00	1.819824e+07
425.00	1.814856e+07
426.00	1.807553e+07
427.00	1.801962e+07
428.00	1.797180e+07
429.00	1.791751e+07
430.00	1.784466e+07
431.00	1.779427e+07
432.00	1.772896e+07
433.00	1.767964e+07
434.00	1.761840e+07
435.00	1.756540e+07
436.00	1.749954e+07
437.00	1.745127e+07
438.00	1.738748e+07
439.00	1.735290e+07
440.00	1.728690e+07
441.00	1.723438e+07
442.00	1.718128e+07
443.00	1.713392e+07
444.00	1.708913e+07
445.00	1.702739e+07
446.00	1.696295e+07
447.00	1.691621e+07
448.00	1.686755e+07
449.00	1.679433e+07
450.00	1.675265e+07
451.00	1.669173e+07
452.00	1.663838e+07
453.00	1.658020e+07
454.00	1.652769e+07
455.00	1.646781e+07
456.00	1.642513e+07
457.00	1.637756e+07
458.00	1.632715e+07
459.00	1.626882e+07
460.00	1.619696e+07
461.00	1.615094e+07
462.00	1.610185e+07
463.00	1.604546e+07
464.00	1.598801e+07
465.00	1.593797e+07
466.00	1.586699e+07
467.00	1.581385e+07
468.00	1.574553e+07
469.00	1.568511e+07
470.00	1.562347e+07
471.00	1.554709e+07
472.00	1.548455e+07
473.00	1.541325e+07
474.00	1.534922e+07
475.00	1.528516e+07
476.00	1.520356e+07
477.00	1.513465e+07
478.00	1.505312e+07
479.00	1.498546e+07
480.00	1.490004e+07
481.00	1.482695e+07
482.00	1.474709e+07
483.00	1.464855e+07
484.00	1.455899e+07
485.00	1.448233e+07
486.00	1.438369e+07
487.00	1.429545e+07
488.00	1.420534e+07
489.00	1.411581e+07
490.00	1.402356e+07
491.00	1.392818e+07
492.00	1.383063e+07
493.00	1.373502e+07
494.00	1.362239e+07
495.00	1.352611e+07
496.00	1.344113e+07
497.00	1.334385e+07
498.00	1.323979e+07
499.00	1.315092e+07
500.00	1.304483e+07
501.00	1.294506e+07
502.00	1.284767e+07
503.00	1.277810e+07
504.00	1.266964e+07
505.00	1.257953e+07
506.00	1.248871e+07
507.00	1.239729e+07
508.00	1.231775e+07
509.00	1.222954e+07
510.00	1.214509e+07
511.00	1.205953e+07
512.00	1.198030e+07
513.00	1.191229e+07
514.00	1.183465e+07
515.00	1.175112e+07
516.00	1.168441e+07
517.00	1.160512e+07
518.00	1.154817e+07
519.00	1.147446e+07
520.00	1.141009e+07
521.00	1.135414e+07
522.00	1.129699e+07
523.00	1.124611e+07
524.00	1.118609e+07
525.00	1.113598e+07
526.00	1.108992e+07
527.00	1.103612e+07
528.00	1.099667e+07
529.00	1.094064e+07
530.00	1.090520e+07
531.00	1.086579e+07
532.00	1.083473e+07
533.00	1.079528e+07
534.00	1.074414e+07
535.00	1.070827e+07
536.00	1.067288e+07
537.00	1.064170e+07
538.00	1.060304e+07
539.00	1.055968e+07
540.00	1.052224e+07
541.00	1.049588e+07
542.00	1.045992e+07
543.00	1.042678e+07
544.00	1.039450e+07
545.00	1.036881e+07
546.00	1.033735e+07
547.00	1.031017e+07
548.00	1.028444e+07
549.00	1.025977e+07
550.00	1.022937e+07
551.00	1.019141e+07
552.00	1.016172e+07
553.00	1.012759e+07
554.00	1.010918e+07
555.00	1.008516e+07
556.00	1.006993e+07
557.00	1.004459e+07
558.00	1.000953e+07
559.00	9.998189e+06
560.00	9.974120e+06
561.00	9.949978e+06
562.00	9.919757e+06
563.00	9.904766e+06
564.00	9.870750e+06
565.00	9.860654e+06
566.00	9.840146e+06
567.00	9.818272e+06
568.00	9.814417e+06
569.00	9.780461e+06
570.00	9.757388e+06
571.00	9.729807e+06
572.00	9.708475e+06
573.00	9.706882e+06
574.00	9.671739e+06
575.00	9.646271e+06
576.00	9.629493e+06
577.00	9.610503e+06
578.00	9.590635e+06
579.00	9.570444e+06
580.00	9.546794e+06
581.00	9.532667e+06
582.00	9.516272e+06
583.00	9.494080e+06
584.00	9.479017e+06
585.00	9.462582e+06
586.00	9.449907e+06
587.00	9.424141e+06
588.00	9.411120e+06
589.00	9.389993e+06
590.00	9.368498e+06
591.00	9.347741e+06
592.00	9.335953e+06
593.00	9.316243e+06
594.00	9.304038e+06
595.00	9.283258e+06
596.00	9.270577e+06
597.00	9.257613e+06
598.00	9.237553e+06
599.00	9.225504e+06
600.00	9.208484e+06
601.00	9.193200e+06
602.00	9.180799e+06
603.00	9.166704e+06
604.00	9.148107e+06
605.00	9.132500e+06
606.00	9.119098e+06
607.00	9.099969e+06
608.00	9.074379e+06
609.00	9.063504e+06
610.00	9.057723e+06
611.00	9.039758e+06
612.00	9.026319e+06
613.00	9.009326e+06
614.00	8.990204e+06
615.00	8.969539e+06
616.00	8.961119e+06
617.00	8.944525e+06
618.00	8.935452e+06
619.00	8.923529e+06
620.00	8.901059e+06
621.00	8.873116e+06
622.00	8.878654e+06
623.00	8.859151e+06
624.00	8.832539e+06
625.00	8.831977e+06
626.00	8.813841e+06
627.00	8.801011e+06
628.00	8.791278e+06
629.00	8.775669e+06
630.00	8.761718e+06
631.00	8.759455e+06
632.00	8.748242e+06
633.00	8.732588e+06
634.00	8.713702e+06
635.00	8.697832e+06
636.00	8.690518e+06
637.00	8.676483e+06
638.00	8.667377e+06
639.00	8.654771e+06
640.00	8.638366e+06
641.00	8.629065e+06
642.00	8.599992e+06
643.00	8.588604e+06
644.00	8.568009e+06
645.00	8.568009e+06
646.00	8.548509e+06
647.00	8.544814e+06
648.00	8.527280e+06
649.00	8.528303e+06
650.00	8.514132e+06
651.00	8.486546e+06
652.00	8.482591e+06
653.00	8.471459e+06
654.00	8.455898e+06
655.00	8.446673e+06
656.00	8.438939e+06
657.00	8.430695e+06
658.00	8.419004e+06
659.00	8.411128e+06
660.00	8.390788e+06
661.00	8.371405e+06
662.00	8.354302e+06
663.00	8.341368e+06
664.00	8.333576e+06
665.00	8.318747e+06
666.00	8.307485e+06
667.00	8.303413e+06
668.00	8.298567e+06
669.00	8.280917e+06
670.00	8.253509e+06
671.00	8.248798e+06
672.00	8.234920e+06
673.00	8.239038e+06
674.00	8.213331e+06
675.00	8.205041e+06
676.00	8.185891e+06
677.00	8.191095e+06
678.00	8.168425e+06
679.00	8.160224e+06
680.00	8.160462e+06
681.00	8.151978e+06
682.00	8.131658e+06
683.00	8.131399e+06
684.00	8.120048e+06
685.00	8.105286e+06
686.00	8.084007e+06
687.00	8.088756e+06
688.00	8.064204e+06
689.00	8.053128e+06
690.00	8.034531e+06
691.00	8.033160e+06
692.00	8.027328e+06
693.00	8.022800e+06
694.00	8.022937e+06
695.00	7.992003e+06
696.00	7.992832e+06
697.00	7.961525e+06
698.00	7.948810e+06
699.00	7.955644e+06
700.00	7.940452e+06
701.00	7.954842e+06
702.00	7.937819e+06
703.00	7.936393e+06
704.00	7.924378e+06
705.00	7.900317e+06
706.00	7.899068e+06
707.00	7.888043e+06
708.00	7.866516e+06
709.00	7.856550e+06
710.00	7.856113e+06
711.00	7.854566e+06
712.00	7.831314e+06
713.00	7.800125e+06
714.00	7.803981e+06
715.00	7.789277e+06
716.00	7.801661e+06
717.00	7.800980e+06
718.00	7.766132e+06
719.00	7.748452e+06
720.00	7.752762e+06
721.00	7.749206e+06
722.00	7.761280e+06
723.00	7.737682e+06
724.00	7.729607e+06
725.00	7.706599e+06
726.00	7.689005e+06
727.00	7.664993e+06
728.00	7.656874e+06
729.00	7.638708e+06
730.00	7.659616e+06
731.00	7.624451e+06
732.00	7.630632e+06
733.00	7.631267e+06
734.00	7.610505e+06
735.00	7.589305e+06
736.00	7.605685e+06
737.00	7.593950e+06
738.00	7.620089e+06
739.00	7.596000e+06
740.00	7.542539e+06
741.00	7.533781e+06
742.00	7.549533e+06
743.00	7.538569e+06
744.00	7.503034e+06
745.00	7.491985e+06
746.00	7.485651e+06
747.00	7.508669e+06
748.00	7.482712e+06
749.00	7.495584e+06
750.00	7.431473e+06
751.00	7.453517e+06
752.00	7.452878e+06
753.00	7.441679e+06
754.00	7.411706e+06
755.00	7.439475e+06
756.00	7.410703e+06
757.00	7.405037e+06
758.00	7.388861e+06
759.00	7.390076e+06
760.00	7.356271e+06
761.00	7.359690e+06
762.00	7.356439e+06
763.00	7.357890e+06
764.00	7.334326e+06
765.00	7.349543e+06
766.00	7.285949e+06
767.00	7.311546e+06
768.00	7.336724e+06
769.00	7.254020e+06
770.00	7.224910e+06
771.00	7.267955e+06
772.00	7.291480e+06
773.00	7.266900e+06
774.00	7.289759e+06
775.00	7.233744e+06
776.00	7.233862e+06
777.00	7.255603e+06
778.00	7.199279e+06
779.00	7.174766e+06
780.00	7.161356e+06
781.00	7.156489e+06
782.00	7.167015e+06
783.00	7.170813e+06
784.00	7.153024e+06
785.00	7.152454e+06
786.00	7.150473e+06
787.00	7.173802e+06
788.00	7.136750e+06
789.00	7.122894e+06
790.00	7.148377e+06
791.00	7.105724e+06
792.00	7.084913e+06
793.00	7.109041e+06
794.00	7.145936e+06
795.00	7.097296e+06
796.00	7.050131e+06
797.00	7.106363e+06
798.00	7.067171e+06
799.00	7.046853e+06
800.00	7.034497e+06
801.00	6.999338e+06
802.00	7.018268e+06
803.00	6.995440e+06
804.00	7.026650e+06
805.00	7.044245e+06
806.00	7.024104e+06
807.00	7.043795e+06
808.00	7.033653e+06
809.00	7.018591e+06
810.00	6.909158e+06
811.00	6.948014e+06
812.00	6.969869e+06
813.00	6.927731e+06
814.00	6.912614e+06
815.00	6.917375e+06
816.00	6.908663e+06
817.00	6.906690e+06
818.00	6.910967e+06
819.00	6.874730e+06
820.00	6.850005e+06
821.00	6.889515e+06
822.00	6.827848e+06
823.00	6.836339e+06
824.00	6.810216e+06
825.00	6.883271e+06
826.00	6.845558e+06
827.00	6.874289e+06
828.00	6.901399e+06
829.00	6.799160e+06
830.00	6.823537e+06
831.00	6.828192e+06
832.00	6.828870e+06
833.00	6.832404e+06
834.00	6.799722e+06
835.00	6.808528e+06
836.00	6.782350e+06
837.00	6.811241e+06
838.00	6.817521e+06
839.00	6.744413e+06
840.00	6.716573e+06
841.00	6.758394e+06
842.00	6.743439e+06
843.00	6.815092e+06
844.00	6.791589e+06
845.00	6.797657e+06
846.00	6.770905e+06
847.00	6.678716e+06
848.00	6.744316e+06
849.00	6.753195e+06
850.00	6.758083e+06
851.00	6.745810e+06
852.00	6.780437e+06
853.00	6.774320e+06
854.00	6.805236e+06
855.00	6.787937e+06
856.00	6.793069e+06
857.00	6.755641e+06
858.00	6.703766e+06
859.00	6.791261e+06
860.00	6.768342e+06
861.00	6.815810e+06
862.00	6.671160e+06
863.00	6.721170e+06
864.00	6.690566e+06
865.00	6.735283e+06
866.00	6.744813e+06
867.00	6.832802e+06
868.00	6.804235e+06
869.00	6.714989e+06
870.00	6.811913e+06
871.00	6.855368e+06
872.00	6.798211e+06
873.00	6.751077e+06
874.00	6.766725e+06
875.00	6.668030e+06
876.00	6.841201e+06
877.00	6.748205e+06
878.00	6.850222e+06
879.00	6.839439e+06
880.00	6.812917e+06
881.00	6.757427e+06
882.00	6.778130e+06
883.00	6.837556e+06
884.00	6.722192e+06
885.00	6.804326e+06
886.00	6.773319e+06
887.00	6.874694e+06
888.00	6.975471e+06
889.00	6.942918e+06
890.00	6.734856e+06
891.00	6.778276e+06
892.00	6.829456e+06
893.00	6.847720e+06
894.00	6.705154e+06
895.00	6.795011e+06
896.00	6.854017e+06
897.00	6.782862e+06
898.00	6.780209e+06
899.00	6.748535e+06
900.00	6.795229e+06
