/ SCAPS Absorption Data - CdS1
/ lambda[nm]	alpha[m^-1]
2.450000e+02	1.865101e+08
2.460000e+02	1.712331e+08
2.470000e+02	1.633960e+08
2.480000e+02	1.580759e+08
2.490000e+02	1.528995e+08
2.500000e+02	1.528924e+08
2.510000e+02	1.450495e+08
2.520000e+02	1.402419e+08
2.530000e+02	1.365191e+08
2.540000e+02	1.318160e+08
2.550000e+02	1.294692e+08
2.560000e+02	1.253556e+08
2.570000e+02	1.225989e+08
2.580000e+02	1.187202e+08
2.590000e+02	1.160613e+08
2.600000e+02	1.127251e+08
2.610000e+02	1.095143e+08
2.620000e+02	1.065564e+08
2.630000e+02	1.036776e+08
2.640000e+02	1.009202e+08
2.650000e+02	9.809957e+07
2.660000e+02	9.548738e+07
2.670000e+02	9.279839e+07
2.680000e+02	9.009173e+07
2.690000e+02	8.766231e+07
2.700000e+02	8.521002e+07
2.710000e+02	8.289720e+07
2.720000e+02	8.065068e+07
2.730000e+02	7.844942e+07
2.740000e+02	7.621386e+07
2.750000e+02	7.405454e+07
2.760000e+02	7.197851e+07
2.770000e+02	7.002820e+07
2.780000e+02	6.816087e+07
2.790000e+02	6.624555e+07
2.800000e+02	6.441106e+07
2.810000e+02	6.267551e+07
2.820000e+02	6.089760e+07
2.830000e+02	5.920225e+07
2.840000e+02	5.761577e+07
2.850000e+02	5.606126e+07
2.860000e+02	5.474234e+07
2.870000e+02	5.331611e+07
2.880000e+02	5.197138e+07
2.890000e+02	5.067824e+07
2.900000e+02	4.938368e+07
2.910000e+02	4.819530e+07
2.920000e+02	4.705630e+07
2.930000e+02	4.590308e+07
2.940000e+02	4.487614e+07
2.950000e+02	4.386813e+07
2.960000e+02	4.285617e+07
2.970000e+02	4.198014e+07
2.980000e+02	4.111005e+07
2.990000e+02	4.024679e+07
3.000000e+02	3.947137e+07
3.010000e+02	3.874726e+07
3.020000e+02	3.795886e+07
3.030000e+02	3.731109e+07
3.040000e+02	3.664459e+07
3.050000e+02	3.605647e+07
3.060000e+02	3.543016e+07
3.070000e+02	3.489310e+07
3.080000e+02	3.437388e+07
3.090000e+02	3.388696e+07
3.100000e+02	3.336644e+07
3.110000e+02	3.294000e+07
3.120000e+02	3.253091e+07
3.130000e+02	3.214939e+07
3.140000e+02	3.178509e+07
3.150000e+02	3.137397e+07
3.160000e+02	3.105506e+07
3.170000e+02	3.069144e+07
3.180000e+02	3.037515e+07
3.190000e+02	3.005096e+07
3.200000e+02	2.972457e+07
3.210000e+02	2.946273e+07
3.220000e+02	2.915022e+07
3.230000e+02	2.888347e+07
3.240000e+02	2.865053e+07
3.250000e+02	2.838932e+07
3.260000e+02	2.814757e+07
3.270000e+02	2.792215e+07
3.280000e+02	2.768056e+07
3.290000e+02	2.744413e+07
3.300000e+02	2.721176e+07
3.310000e+02	2.703204e+07
3.320000e+02	2.682643e+07
3.330000e+02	2.663352e+07
3.340000e+02	2.646184e+07
3.350000e+02	2.626657e+07
3.360000e+02	2.606410e+07
3.370000e+02	2.588490e+07
3.380000e+02	2.573492e+07
3.390000e+02	2.559083e+07
3.400000e+02	2.544099e+07
3.410000e+02	2.529624e+07
3.420000e+02	2.513283e+07
3.430000e+02	2.501156e+07
3.440000e+02	2.485086e+07
3.450000e+02	2.472685e+07
3.460000e+02	2.462149e+07
3.470000e+02	2.447087e+07
3.480000e+02	2.435543e+07
3.490000e+02	2.427154e+07
3.500000e+02	2.414138e+07
3.510000e+02	2.400780e+07
3.520000e+02	2.385916e+07
3.530000e+02	2.374356e+07
3.540000e+02	2.367705e+07
3.550000e+02	2.355107e+07
3.560000e+02	2.343528e+07
3.570000e+02	2.332215e+07
3.580000e+02	2.322201e+07
3.590000e+02	2.311048e+07
3.600000e+02	2.301438e+07
3.610000e+02	2.290742e+07
3.620000e+02	2.279965e+07
3.630000e+02	2.267287e+07
3.640000e+02	2.258191e+07
3.650000e+02	2.249759e+07
3.660000e+02	2.243040e+07
3.670000e+02	2.235396e+07
3.680000e+02	2.224493e+07
3.690000e+02	2.215923e+07
3.700000e+02	2.206632e+07
3.710000e+02	2.198278e+07
3.720000e+02	2.190323e+07
3.730000e+02	2.179736e+07
3.740000e+02	2.168943e+07
3.750000e+02	2.160928e+07
3.760000e+02	2.155616e+07
3.770000e+02	2.149717e+07
3.780000e+02	2.140391e+07
3.790000e+02	2.129915e+07
3.800000e+02	2.120914e+07
3.810000e+02	2.115203e+07
3.820000e+02	2.106337e+07
3.830000e+02	2.096122e+07
3.840000e+02	2.090046e+07
3.850000e+02	2.083967e+07
3.860000e+02	2.075636e+07
3.870000e+02	2.066990e+07
3.880000e+02	2.059435e+07
3.890000e+02	2.051844e+07
3.900000e+02	2.044138e+07
3.910000e+02	2.036036e+07
3.920000e+02	2.027917e+07
3.930000e+02	2.020000e+07
3.940000e+02	2.012931e+07
3.950000e+02	2.008221e+07
3.960000e+02	1.998074e+07
3.970000e+02	1.990821e+07
3.980000e+02	1.984028e+07
3.990000e+02	1.977456e+07
4.000000e+02	1.970685e+07
4.010000e+02	1.964354e+07
4.020000e+02	1.957526e+07
4.030000e+02	1.949432e+07
4.040000e+02	1.943618e+07
4.050000e+02	1.937052e+07
4.060000e+02	1.931529e+07
4.070000e+02	1.920998e+07
4.080000e+02	1.914349e+07
4.090000e+02	1.908534e+07
4.100000e+02	1.903120e+07
4.110000e+02	1.895723e+07
4.120000e+02	1.889707e+07
4.130000e+02	1.882237e+07
4.140000e+02	1.873299e+07
4.150000e+02	1.869072e+07
4.160000e+02	1.865198e+07
4.170000e+02	1.858643e+07
4.180000e+02	1.852796e+07
4.190000e+02	1.845685e+07
4.200000e+02	1.842848e+07
4.210000e+02	1.836334e+07
4.220000e+02	1.830841e+07
4.230000e+02	1.824217e+07
4.240000e+02	1.819824e+07
4.250000e+02	1.814856e+07
4.260000e+02	1.807553e+07
4.270000e+02	1.801962e+07
4.280000e+02	1.797180e+07
4.290000e+02	1.791751e+07
4.300000e+02	1.784466e+07
4.310000e+02	1.779427e+07
4.320000e+02	1.772896e+07
4.330000e+02	1.767964e+07
4.340000e+02	1.761840e+07
4.350000e+02	1.756540e+07
4.360000e+02	1.749954e+07
4.370000e+02	1.745127e+07
4.380000e+02	1.738748e+07
4.390000e+02	1.735290e+07
4.400000e+02	1.728690e+07
4.410000e+02	1.723438e+07
4.420000e+02	1.718128e+07
4.430000e+02	1.713392e+07
4.440000e+02	1.708913e+07
4.450000e+02	1.702739e+07
4.460000e+02	1.696295e+07
4.470000e+02	1.691621e+07
4.480000e+02	1.686755e+07
4.490000e+02	1.679433e+07
4.500000e+02	1.675265e+07
4.510000e+02	1.669173e+07
4.520000e+02	1.663838e+07
4.530000e+02	1.658020e+07
4.540000e+02	1.652769e+07
4.550000e+02	1.646781e+07
4.560000e+02	1.642513e+07
4.570000e+02	1.637756e+07
4.580000e+02	1.632715e+07
4.590000e+02	1.626882e+07
4.600000e+02	1.619696e+07
4.610000e+02	1.615094e+07
4.620000e+02	1.610185e+07
4.630000e+02	1.604546e+07
4.640000e+02	1.598801e+07
4.650000e+02	1.593797e+07
4.660000e+02	1.586699e+07
4.670000e+02	1.581385e+07
4.680000e+02	1.574553e+07
4.690000e+02	1.568511e+07
4.700000e+02	1.562347e+07
4.710000e+02	1.554709e+07
4.720000e+02	1.548455e+07
4.730000e+02	1.541325e+07
4.740000e+02	1.534922e+07
4.750000e+02	1.528516e+07
4.760000e+02	1.520356e+07
4.770000e+02	1.513465e+07
4.780000e+02	1.505312e+07
4.790000e+02	1.498546e+07
4.800000e+02	1.490004e+07
4.810000e+02	1.482695e+07
4.820000e+02	1.474709e+07
4.830000e+02	1.464855e+07
4.840000e+02	1.455899e+07
4.850000e+02	1.448233e+07
4.860000e+02	1.438369e+07
4.870000e+02	1.429545e+07
4.880000e+02	1.420534e+07
4.890000e+02	1.411581e+07
4.900000e+02	1.402356e+07
4.910000e+02	1.392818e+07
4.920000e+02	1.383063e+07
4.930000e+02	1.373502e+07
4.940000e+02	1.362239e+07
4.950000e+02	1.352611e+07
4.960000e+02	1.344113e+07
4.970000e+02	1.334385e+07
4.980000e+02	1.323979e+07
4.990000e+02	1.315092e+07
5.000000e+02	1.304483e+07
5.010000e+02	1.294506e+07
5.020000e+02	1.284767e+07
5.030000e+02	1.277810e+07
5.040000e+02	1.266964e+07
5.050000e+02	1.257953e+07
5.060000e+02	1.248871e+07
5.070000e+02	1.239729e+07
5.080000e+02	1.231775e+07
5.090000e+02	1.222954e+07
5.100000e+02	1.214509e+07
5.110000e+02	1.205953e+07
5.120000e+02	1.198030e+07
5.130000e+02	1.191229e+07
5.140000e+02	1.183465e+07
5.150000e+02	1.175112e+07
5.160000e+02	1.168441e+07
5.170000e+02	1.160512e+07
5.180000e+02	1.154817e+07
5.190000e+02	1.147446e+07
5.200000e+02	1.141009e+07
5.210000e+02	1.135414e+07
5.220000e+02	1.129699e+07
5.230000e+02	1.124611e+07
5.240000e+02	1.118609e+07
5.250000e+02	1.113598e+07
5.260000e+02	1.108992e+07
5.270000e+02	1.103612e+07
5.280000e+02	1.099667e+07
5.290000e+02	1.094064e+07
5.300000e+02	1.090520e+07
5.310000e+02	1.086579e+07
5.320000e+02	1.083473e+07
5.330000e+02	1.079528e+07
5.340000e+02	1.074414e+07
5.350000e+02	1.070827e+07
5.360000e+02	1.067288e+07
5.370000e+02	1.064170e+07
5.380000e+02	1.060304e+07
5.390000e+02	1.055968e+07
5.400000e+02	1.052224e+07
5.410000e+02	1.049588e+07
5.420000e+02	1.045992e+07
5.430000e+02	1.042678e+07
5.440000e+02	1.039450e+07
5.450000e+02	1.036881e+07
5.460000e+02	1.033735e+07
5.470000e+02	1.031017e+07
5.480000e+02	1.028444e+07
5.490000e+02	1.025977e+07
5.500000e+02	1.022937e+07
5.510000e+02	1.019141e+07
5.520000e+02	1.016172e+07
5.530000e+02	1.012759e+07
5.540000e+02	1.010918e+07
5.550000e+02	1.008516e+07
5.560000e+02	1.006993e+07
5.570000e+02	1.004459e+07
5.580000e+02	1.000953e+07
5.590000e+02	9.998189e+06
5.600000e+02	9.974120e+06
5.610000e+02	9.949978e+06
5.620000e+02	9.919757e+06
5.630000e+02	9.904766e+06
5.640000e+02	9.870750e+06
5.650000e+02	9.860654e+06
5.660000e+02	9.840146e+06
5.670000e+02	9.818272e+06
5.680000e+02	9.814417e+06
5.690000e+02	9.780461e+06
5.700000e+02	9.757388e+06
5.710000e+02	9.729807e+06
5.720000e+02	9.708475e+06
5.730000e+02	9.706882e+06
5.740000e+02	9.671739e+06
5.750000e+02	9.646271e+06
5.760000e+02	9.629493e+06
5.770000e+02	9.610503e+06
5.780000e+02	9.590635e+06
5.790000e+02	9.570444e+06
5.800000e+02	9.546794e+06
5.810000e+02	9.532667e+06
5.820000e+02	9.516272e+06
5.830000e+02	9.494080e+06
5.840000e+02	9.479017e+06
5.850000e+02	9.462582e+06
5.860000e+02	9.449907e+06
5.870000e+02	9.424141e+06
5.880000e+02	9.411120e+06
5.890000e+02	9.389993e+06
5.900000e+02	9.368498e+06
5.910000e+02	9.347741e+06
5.920000e+02	9.335953e+06
5.930000e+02	9.316243e+06
5.940000e+02	9.304038e+06
5.950000e+02	9.283258e+06
5.960000e+02	9.270577e+06
5.970000e+02	9.257613e+06
5.980000e+02	9.237553e+06
5.990000e+02	9.225504e+06
6.000000e+02	9.208484e+06
6.010000e+02	9.193200e+06
6.020000e+02	9.180799e+06
6.030000e+02	9.166704e+06
6.040000e+02	9.148107e+06
6.050000e+02	9.132500e+06
6.060000e+02	9.119098e+06
6.070000e+02	9.099969e+06
6.080000e+02	9.074379e+06
6.090000e+02	9.063504e+06
6.100000e+02	9.057723e+06
6.110000e+02	9.039758e+06
6.120000e+02	9.026319e+06
6.130000e+02	9.009326e+06
6.140000e+02	8.990204e+06
6.150000e+02	8.969539e+06
6.160000e+02	8.961119e+06
6.170000e+02	8.944525e+06
6.180000e+02	8.935452e+06
6.190000e+02	8.923529e+06
6.200000e+02	8.901059e+06
6.210000e+02	8.873116e+06
6.220000e+02	8.878654e+06
6.230000e+02	8.859151e+06
6.240000e+02	8.832539e+06
6.250000e+02	8.831977e+06
6.260000e+02	8.813841e+06
6.270000e+02	8.801011e+06
6.280000e+02	8.791278e+06
6.290000e+02	8.775669e+06
6.300000e+02	8.761718e+06
6.310000e+02	8.759455e+06
6.320000e+02	8.748242e+06
6.330000e+02	8.732588e+06
6.340000e+02	8.713702e+06
6.350000e+02	8.697832e+06
6.360000e+02	8.690518e+06
6.370000e+02	8.676483e+06
6.380000e+02	8.667377e+06
6.390000e+02	8.654771e+06
6.400000e+02	8.638366e+06
6.410000e+02	8.629065e+06
6.420000e+02	8.599992e+06
6.430000e+02	8.588604e+06
6.440000e+02	8.568009e+06
6.450000e+02	8.568009e+06
6.460000e+02	8.548509e+06
6.470000e+02	8.544814e+06
6.480000e+02	8.527280e+06
6.490000e+02	8.528303e+06
6.500000e+02	8.514132e+06
6.510000e+02	8.486546e+06
6.520000e+02	8.482591e+06
6.530000e+02	8.471459e+06
6.540000e+02	8.455898e+06
6.550000e+02	8.446673e+06
6.560000e+02	8.438939e+06
6.570000e+02	8.430695e+06
6.580000e+02	8.419004e+06
6.590000e+02	8.411128e+06
6.600000e+02	8.390788e+06
6.610000e+02	8.371405e+06
6.620000e+02	8.354302e+06
6.630000e+02	8.341368e+06
6.640000e+02	8.333576e+06
6.650000e+02	8.318747e+06
6.660000e+02	8.307485e+06
6.670000e+02	8.303413e+06
6.680000e+02	8.298567e+06
6.690000e+02	8.280917e+06
6.700000e+02	8.253509e+06
6.710000e+02	8.248798e+06
6.720000e+02	8.234920e+06
6.730000e+02	8.239038e+06
6.740000e+02	8.213331e+06
6.750000e+02	8.205041e+06
6.760000e+02	8.185891e+06
6.770000e+02	8.191095e+06
6.780000e+02	8.168425e+06
6.790000e+02	8.160224e+06
6.800000e+02	8.160462e+06
6.810000e+02	8.151978e+06
6.820000e+02	8.131658e+06
6.830000e+02	8.131399e+06
6.840000e+02	8.120048e+06
6.850000e+02	8.105286e+06
6.860000e+02	8.084007e+06
6.870000e+02	8.088756e+06
6.880000e+02	8.064204e+06
6.890000e+02	8.053128e+06
6.900000e+02	8.034531e+06
6.910000e+02	8.033160e+06
6.920000e+02	8.027328e+06
6.930000e+02	8.022800e+06
6.940000e+02	8.022937e+06
6.950000e+02	7.992003e+06
6.960000e+02	7.992832e+06
6.970000e+02	7.961525e+06
6.980000e+02	7.948810e+06
6.990000e+02	7.955644e+06
7.000000e+02	7.940452e+06
7.010000e+02	7.954842e+06
7.020000e+02	7.937819e+06
7.030000e+02	7.936393e+06
7.040000e+02	7.924378e+06
7.050000e+02	7.900317e+06
7.060000e+02	7.899068e+06
7.070000e+02	7.888043e+06
7.080000e+02	7.866516e+06
7.090000e+02	7.856550e+06
7.100000e+02	7.856113e+06
7.110000e+02	7.854566e+06
7.120000e+02	7.831314e+06
7.130000e+02	7.800125e+06
7.140000e+02	7.803981e+06
7.150000e+02	7.789277e+06
7.160000e+02	7.801661e+06
7.170000e+02	7.800980e+06
7.180000e+02	7.766132e+06
7.190000e+02	7.748452e+06
7.200000e+02	7.752762e+06
7.210000e+02	7.749206e+06
7.220000e+02	7.761280e+06
7.230000e+02	7.737682e+06
7.240000e+02	7.729607e+06
7.250000e+02	7.706599e+06
7.260000e+02	7.689005e+06
7.270000e+02	7.664993e+06
7.280000e+02	7.656874e+06
7.290000e+02	7.638708e+06
7.300000e+02	7.659616e+06
7.310000e+02	7.624451e+06
7.320000e+02	7.630632e+06
7.330000e+02	7.631267e+06
7.340000e+02	7.610505e+06
7.350000e+02	7.589305e+06
7.360000e+02	7.605685e+06
7.370000e+02	7.593950e+06
7.380000e+02	7.620089e+06
7.390000e+02	7.596000e+06
7.400000e+02	7.542539e+06
7.410000e+02	7.533781e+06
7.420000e+02	7.549533e+06
7.430000e+02	7.538569e+06
7.440000e+02	7.503034e+06
7.450000e+02	7.491985e+06
7.460000e+02	7.485651e+06
7.470000e+02	7.508669e+06
7.480000e+02	7.482712e+06
7.490000e+02	7.495584e+06
7.500000e+02	7.431473e+06
7.510000e+02	7.453517e+06
7.520000e+02	7.452878e+06
7.530000e+02	7.441679e+06
7.540000e+02	7.411706e+06
7.550000e+02	7.439475e+06
7.560000e+02	7.410703e+06
7.570000e+02	7.405037e+06
7.580000e+02	7.388861e+06
7.590000e+02	7.390076e+06
7.600000e+02	7.356271e+06
7.610000e+02	7.359690e+06
7.620000e+02	7.356439e+06
7.630000e+02	7.357890e+06
7.640000e+02	7.334326e+06
7.650000e+02	7.349543e+06
7.660000e+02	7.285949e+06
7.670000e+02	7.311546e+06
7.680000e+02	7.336724e+06
7.690000e+02	7.254020e+06
7.700000e+02	7.224910e+06
7.710000e+02	7.267955e+06
7.720000e+02	7.291480e+06
7.730000e+02	7.266900e+06
7.740000e+02	7.289759e+06
7.750000e+02	7.233744e+06
7.760000e+02	7.233862e+06
7.770000e+02	7.255603e+06
7.780000e+02	7.199279e+06
7.790000e+02	7.174766e+06
7.800000e+02	7.161356e+06
7.810000e+02	7.156489e+06
7.820000e+02	7.167015e+06
7.830000e+02	7.170813e+06
7.840000e+02	7.153024e+06
7.850000e+02	7.152454e+06
7.860000e+02	7.150473e+06
7.870000e+02	7.173802e+06
7.880000e+02	7.136750e+06
7.890000e+02	7.122894e+06
7.900000e+02	7.148377e+06
7.910000e+02	7.105724e+06
7.920000e+02	7.084913e+06
7.930000e+02	7.109041e+06
7.940000e+02	7.145936e+06
7.950000e+02	7.097296e+06
7.960000e+02	7.050131e+06
7.970000e+02	7.106363e+06
7.980000e+02	7.067171e+06
7.990000e+02	7.046853e+06
8.000000e+02	7.034497e+06
8.010000e+02	6.999338e+06
8.020000e+02	7.018268e+06
8.030000e+02	6.995440e+06
8.040000e+02	7.026650e+06
8.050000e+02	7.044245e+06
8.060000e+02	7.024104e+06
8.070000e+02	7.043795e+06
8.080000e+02	7.033653e+06
8.090000e+02	7.018591e+06
8.100000e+02	6.909158e+06
8.110000e+02	6.948014e+06
8.120000e+02	6.969869e+06
8.130000e+02	6.927731e+06
8.140000e+02	6.912614e+06
8.150000e+02	6.917375e+06
8.160000e+02	6.908663e+06
8.170000e+02	6.906690e+06
8.180000e+02	6.910967e+06
8.190000e+02	6.874730e+06
8.200000e+02	6.850005e+06
8.210000e+02	6.889515e+06
8.220000e+02	6.827848e+06
8.230000e+02	6.836339e+06
8.240000e+02	6.810216e+06
8.250000e+02	6.883271e+06
8.260000e+02	6.845558e+06
8.270000e+02	6.874289e+06
8.280000e+02	6.901399e+06
8.290000e+02	6.799160e+06
8.300000e+02	6.823537e+06
8.310000e+02	6.828192e+06
8.320000e+02	6.828870e+06
8.330000e+02	6.832404e+06
8.340000e+02	6.799722e+06
8.350000e+02	6.808528e+06
8.360000e+02	6.782350e+06
8.370000e+02	6.811241e+06
8.380000e+02	6.817521e+06
8.390000e+02	6.744413e+06
8.400000e+02	6.716573e+06
8.410000e+02	6.758394e+06
8.420000e+02	6.743439e+06
8.430000e+02	6.815092e+06
8.440000e+02	6.791589e+06
8.450000e+02	6.797657e+06
8.460000e+02	6.770905e+06
8.470000e+02	6.678716e+06
8.480000e+02	6.744316e+06
8.490000e+02	6.753195e+06
8.500000e+02	6.758083e+06
8.510000e+02	6.745810e+06
8.520000e+02	6.780437e+06
8.530000e+02	6.774320e+06
8.540000e+02	6.805236e+06
8.550000e+02	6.787937e+06
8.560000e+02	6.793069e+06
8.570000e+02	6.755641e+06
8.580000e+02	6.703766e+06
8.590000e+02	6.791261e+06
8.600000e+02	6.768342e+06
8.610000e+02	6.815810e+06
8.620000e+02	6.671160e+06
8.630000e+02	6.721170e+06
8.640000e+02	6.690566e+06
8.650000e+02	6.735283e+06
8.660000e+02	6.744813e+06
8.670000e+02	6.832802e+06
8.680000e+02	6.804235e+06
8.690000e+02	6.714989e+06
8.700000e+02	6.811913e+06
8.710000e+02	6.855368e+06
8.720000e+02	6.798211e+06
8.730000e+02	6.751077e+06
8.740000e+02	6.766725e+06
8.750000e+02	6.668030e+06
8.760000e+02	6.841201e+06
8.770000e+02	6.748205e+06
8.780000e+02	6.850222e+06
8.790000e+02	6.839439e+06
8.800000e+02	6.812917e+06
8.810000e+02	6.757427e+06
8.820000e+02	6.778130e+06
8.830000e+02	6.837556e+06
8.840000e+02	6.722192e+06
8.850000e+02	6.804326e+06
8.860000e+02	6.773319e+06
8.870000e+02	6.874694e+06
8.880000e+02	6.975471e+06
8.890000e+02	6.942918e+06
8.900000e+02	6.734856e+06
8.910000e+02	6.778276e+06
8.920000e+02	6.829456e+06
8.930000e+02	6.847720e+06
8.940000e+02	6.705154e+06
8.950000e+02	6.795011e+06
8.960000e+02	6.854017e+06
8.970000e+02	6.782862e+06
8.980000e+02	6.780209e+06
8.990000e+02	6.748535e+06
9.000000e+02	6.795229e+06
