/SCAPS Absorption Data - CdS2
/lambda[nm]	alpha[m^-1]
200.00	3.825220e+08
201.00	3.825348e+08
202.00	3.825621e+08
203.00	3.826129e+08
204.00	3.826001e+08
205.00	3.826077e+08
206.00	3.826370e+08
207.00	3.826429e+08
208.00	3.826401e+08
209.00	3.826549e+08
210.00	3.826508e+08
211.00	3.826477e+08
212.00	3.826408e+08
213.00	3.826308e+08
214.00	3.826118e+08
215.00	3.826077e+08
216.00	3.825877e+08
217.00	3.825811e+08
218.00	3.825687e+08
219.00	3.825586e+08
220.00	3.825666e+08
221.00	3.825476e+08
222.00	3.825469e+08
223.00	3.825455e+08
224.00	3.825334e+08
225.00	3.825348e+08
226.00	3.825334e+08
227.00	3.825317e+08
228.00	3.825327e+08
229.00	3.825310e+08
230.00	3.825438e+08
231.00	3.825455e+08
232.00	3.825479e+08
233.00	3.825438e+08
234.00	3.825459e+08
235.00	3.825510e+08
236.00	3.825545e+08
237.00	3.825548e+08
238.00	3.825559e+08
239.00	3.825538e+08
240.00	1.791200e+08
241.00	1.791244e+08
242.00	1.560164e+08
243.00	1.540544e+08
244.00	1.492583e+08
245.00	1.424982e+08
246.00	1.399276e+08
247.00	1.329056e+08
248.00	1.304908e+08
249.00	1.258091e+08
250.00	1.229959e+08
251.00	1.193829e+08
252.00	1.152944e+08
253.00	1.123086e+08
254.00	1.093984e+08
255.00	1.061516e+08
256.00	1.027493e+08
257.00	9.999971e+07
258.00	9.677529e+07
259.00	9.397174e+07
260.00	9.108113e+07
261.00	8.815537e+07
262.00	8.536839e+07
263.00	8.279956e+07
264.00	8.009788e+07
265.00	7.748547e+07
266.00	7.494803e+07
267.00	7.253383e+07
268.00	7.006285e+07
269.00	6.774982e+07
270.00	6.542330e+07
271.00	6.321138e+07
272.00	6.109057e+07
273.00	5.903211e+07
274.00	5.707183e+07
275.00	5.503787e+07
276.00	5.305176e+07
277.00	5.127987e+07
278.00	4.949979e+07
279.00	4.776096e+07
280.00	4.608834e+07
281.00	4.445749e+07
282.00	4.285249e+07
283.00	4.126361e+07
284.00	3.986337e+07
285.00	3.844412e+07
286.00	3.721236e+07
287.00	3.596555e+07
288.00	3.472470e+07
289.00	3.358839e+07
290.00	3.243113e+07
291.00	3.133539e+07
292.00	3.029344e+07
293.00	2.932132e+07
294.00	2.837553e+07
295.00	2.750547e+07
296.00	2.661725e+07
297.00	2.584604e+07
298.00	2.510834e+07
299.00	2.434519e+07
300.00	2.365230e+07
301.00	2.303836e+07
302.00	2.242791e+07
303.00	2.185521e+07
304.00	2.132910e+07
305.00	2.084352e+07
306.00	2.034521e+07
307.00	1.987691e+07
308.00	1.941857e+07
309.00	1.903645e+07
310.00	1.865079e+07
311.00	1.835480e+07
312.00	1.797980e+07
313.00	1.768773e+07
314.00	1.741188e+07
315.00	1.708352e+07
316.00	1.685595e+07
317.00	1.678028e+07
318.00	1.654393e+07
319.00	1.635201e+07
320.00	1.613304e+07
321.00	1.590935e+07
322.00	1.570004e+07
323.00	1.549762e+07
324.00	1.532226e+07
325.00	1.517184e+07
326.00	1.498804e+07
327.00	1.484776e+07
328.00	1.474179e+07
329.00	1.453680e+07
330.00	1.442795e+07
331.00	1.426797e+07
332.00	1.416098e+07
333.00	1.405928e+07
334.00	1.392817e+07
335.00	1.382391e+07
336.00	1.369849e+07
337.00	1.359698e+07
338.00	1.350912e+07
339.00	1.342163e+07
340.00	1.331886e+07
341.00	1.323396e+07
342.00	1.312143e+07
343.00	1.302740e+07
344.00	1.296883e+07
345.00	1.290216e+07
346.00	1.284020e+07
347.00	1.277161e+07
348.00	1.271005e+07
349.00	1.263862e+07
350.00	1.256163e+07
351.00	1.247791e+07
352.00	1.243590e+07
353.00	1.235824e+07
354.00	1.231196e+07
355.00	1.224594e+07
356.00	1.217084e+07
357.00	1.213548e+07
358.00	1.203276e+07
359.00	1.198844e+07
360.00	1.191160e+07
361.00	1.187559e+07
362.00	1.181628e+07
363.00	1.177033e+07
364.00	1.174643e+07
365.00	1.164660e+07
366.00	1.162224e+07
367.00	1.155391e+07
368.00	1.150403e+07
369.00	1.145361e+07
370.00	1.139110e+07
371.00	1.135929e+07
372.00	1.129807e+07
373.00	1.124091e+07
374.00	1.117492e+07
375.00	1.111870e+07
376.00	1.108719e+07
377.00	1.105376e+07
378.00	1.098013e+07
379.00	1.092771e+07
380.00	1.089339e+07
381.00	1.083261e+07
382.00	1.077208e+07
383.00	1.072779e+07
384.00	1.068894e+07
385.00	1.064876e+07
386.00	1.058513e+07
387.00	1.054211e+07
388.00	1.048258e+07
389.00	1.042398e+07
390.00	1.037922e+07
391.00	1.032011e+07
392.00	1.027837e+07
393.00	1.022580e+07
394.00	1.016609e+07
395.00	1.014207e+07
396.00	1.006959e+07
397.00	1.002656e+07
398.00	9.979969e+06
399.00	9.932749e+06
400.00	9.900879e+06
401.00	9.844510e+06
402.00	9.803201e+06
403.00	9.736492e+06
404.00	9.704858e+06
405.00	9.677059e+06
406.00	9.615188e+06
407.00	9.560343e+06
408.00	9.510353e+06
409.00	9.442594e+06
410.00	9.417812e+06
411.00	9.379779e+06
412.00	9.336385e+06
413.00	9.278574e+06
414.00	9.239606e+06
415.00	9.197868e+06
416.00	9.165312e+06
417.00	9.124855e+06
418.00	9.083206e+06
419.00	9.030429e+06
420.00	8.992869e+06
421.00	8.958372e+06
422.00	8.928991e+06
423.00	8.875383e+06
424.00	8.835895e+06
425.00	8.811637e+06
426.00	8.760249e+06
427.00	8.714538e+06
428.00	8.683478e+06
429.00	8.642997e+06
430.00	8.603629e+06
431.00	8.551163e+06
432.00	8.517084e+06
433.00	8.484223e+06
434.00	8.442662e+06
435.00	8.400433e+06
436.00	8.352108e+06
437.00	8.322115e+06
438.00	8.270952e+06
439.00	8.231105e+06
440.00	8.198666e+06
441.00	8.162261e+06
442.00	8.135520e+06
443.00	8.086821e+06
444.00	8.063199e+06
445.00	8.022478e+06
446.00	7.975782e+06
447.00	7.954651e+06
448.00	7.910417e+06
449.00	7.863304e+06
450.00	7.834837e+06
451.00	7.792341e+06
452.00	7.770761e+06
453.00	7.728923e+06
454.00	7.699958e+06
455.00	7.659548e+06
456.00	7.622855e+06
457.00	7.593272e+06
458.00	7.570062e+06
459.00	7.516185e+06
460.00	7.487034e+06
461.00	7.463623e+06
462.00	7.434794e+06
463.00	7.395386e+06
464.00	7.365208e+06
465.00	7.335570e+06
466.00	7.303157e+06
467.00	7.272974e+06
468.00	7.241966e+06
469.00	7.204786e+06
470.00	7.171952e+06
471.00	7.139138e+06
472.00	7.107062e+06
473.00	7.076168e+06
474.00	7.048198e+06
475.00	7.004224e+06
476.00	6.975140e+06
477.00	6.939929e+06
478.00	6.909284e+06
479.00	6.878173e+06
480.00	6.841498e+06
481.00	6.809903e+06
482.00	6.778312e+06
483.00	6.738460e+06
484.00	6.699606e+06
485.00	6.666263e+06
486.00	6.628961e+06
487.00	6.596266e+06
488.00	6.555344e+06
489.00	6.508496e+06
490.00	6.460396e+06
491.00	6.433821e+06
492.00	6.385594e+06
493.00	6.335248e+06
494.00	6.289734e+06
495.00	6.247974e+06
496.00	6.204825e+06
497.00	6.159218e+06
498.00	6.103980e+06
499.00	6.057311e+06
500.00	5.999981e+06
501.00	5.946457e+06
502.00	5.887847e+06
503.00	5.843130e+06
504.00	5.788571e+06
505.00	5.731849e+06
506.00	5.674755e+06
507.00	5.618804e+06
508.00	5.555733e+06
509.00	5.494248e+06
510.00	5.426473e+06
511.00	5.364956e+06
512.00	5.297391e+06
513.00	5.239497e+06
514.00	5.170391e+06
515.00	5.098899e+06
516.00	5.036468e+06
517.00	4.965602e+06
518.00	4.906137e+06
519.00	4.837426e+06
520.00	4.770831e+06
521.00	4.696687e+06
522.00	4.632209e+06
523.00	4.565284e+06
524.00	4.508345e+06
525.00	4.453577e+06
526.00	4.390619e+06
527.00	4.333539e+06
528.00	4.281169e+06
529.00	4.224264e+06
530.00	4.166286e+06
531.00	4.114765e+06
532.00	4.073948e+06
533.00	4.026585e+06
534.00	3.973255e+06
535.00	3.921395e+06
536.00	3.877736e+06
537.00	3.828387e+06
538.00	3.796976e+06
539.00	3.741415e+06
540.00	3.696902e+06
541.00	3.655715e+06
542.00	3.614861e+06
543.00	3.574634e+06
544.00	3.539170e+06
545.00	3.499639e+06
546.00	3.461854e+06
547.00	3.445510e+06
548.00	3.398255e+06
549.00	3.361783e+06
550.00	3.319643e+06
551.00	3.297650e+06
552.00	3.264643e+06
553.00	3.235630e+06
554.00	3.206466e+06
555.00	3.177865e+06
556.00	3.151021e+06
557.00	3.128870e+06
558.00	3.098835e+06
559.00	3.070888e+06
560.00	3.046840e+06
561.00	3.029893e+06
562.00	2.999254e+06
563.00	2.975900e+06
564.00	2.949773e+06
565.00	2.925546e+06
566.00	2.905668e+06
567.00	2.886895e+06
568.00	2.871095e+06
569.00	2.846763e+06
570.00	2.824417e+06
571.00	2.813307e+06
572.00	2.784477e+06
573.00	2.757474e+06
574.00	2.746177e+06
575.00	2.726318e+06
576.00	2.698082e+06
577.00	2.687596e+06
578.00	2.661796e+06
579.00	2.647376e+06
580.00	2.622023e+06
581.00	2.612568e+06
582.00	2.587245e+06
583.00	2.577431e+06
584.00	2.558809e+06
585.00	2.531980e+06
586.00	2.527464e+06
587.00	2.508715e+06
588.00	2.484340e+06
589.00	2.471877e+06
590.00	2.455505e+06
591.00	2.435300e+06
592.00	2.423429e+06
593.00	2.405389e+06
594.00	2.384234e+06
595.00	2.371845e+06
596.00	2.356363e+06
597.00	2.339514e+06
598.00	2.329483e+06
599.00	2.321006e+06
600.00	2.307526e+06
601.00	2.294020e+06
602.00	2.276279e+06
603.00	2.265315e+06
604.00	2.243605e+06
605.00	2.227071e+06
606.00	2.214814e+06
607.00	2.200993e+06
608.00	2.180334e+06
609.00	2.171890e+06
610.00	2.163110e+06
611.00	2.147442e+06
612.00	2.142846e+06
613.00	2.128355e+06
614.00	2.109477e+06
615.00	2.092545e+06
616.00	2.092929e+06
617.00	2.078664e+06
618.00	2.073334e+06
619.00	2.049014e+06
620.00	2.037642e+06
621.00	2.018140e+06
622.00	2.016039e+06
623.00	2.005050e+06
624.00	1.986885e+06
625.00	1.973088e+06
626.00	1.964029e+06
627.00	1.951374e+06
628.00	1.943449e+06
629.00	1.941380e+06
630.00	1.924414e+06
631.00	1.909173e+06
632.00	1.917267e+06
633.00	1.905977e+06
634.00	1.883982e+06
635.00	1.866502e+06
636.00	1.852997e+06
637.00	1.857874e+06
638.00	1.836879e+06
639.00	1.829195e+06
640.00	1.819269e+06
641.00	1.811601e+06
642.00	1.797390e+06
643.00	1.791407e+06
644.00	1.769935e+06
645.00	1.771430e+06
646.00	1.769194e+06
647.00	1.758372e+06
648.00	1.732099e+06
649.00	1.722420e+06
650.00	1.709399e+06
651.00	1.711634e+06
652.00	1.707356e+06
653.00	1.685992e+06
654.00	1.692304e+06
655.00	1.670033e+06
656.00	1.671146e+06
657.00	1.648718e+06
658.00	1.650014e+06
659.00	1.644828e+06
660.00	1.620215e+06
661.00	1.623728e+06
662.00	1.613744e+06
663.00	1.596931e+06
664.00	1.594900e+06
665.00	1.585301e+06
666.00	1.570360e+06
667.00	1.569252e+06
668.00	1.553957e+06
669.00	1.545124e+06
670.00	1.536652e+06
671.00	1.532418e+06
672.00	1.517899e+06
673.00	1.515506e+06
674.00	1.509991e+06
675.00	1.493838e+06
676.00	1.481546e+06
677.00	1.481725e+06
678.00	1.463588e+06
679.00	1.449477e+06
680.00	1.449305e+06
681.00	1.442887e+06
682.00	1.441792e+06
683.00	1.426614e+06
684.00	1.437401e+06
685.00	1.417844e+06
686.00	1.414006e+06
687.00	1.401045e+06
688.00	1.383183e+06
689.00	1.370432e+06
690.00	1.372062e+06
691.00	1.365484e+06
692.00	1.352200e+06
693.00	1.353645e+06
694.00	1.335472e+06
695.00	1.340919e+06
696.00	1.332008e+06
697.00	1.326013e+06
698.00	1.317671e+06
699.00	1.309680e+06
700.00	1.302597e+06
701.00	1.297702e+06
702.00	1.295686e+06
703.00	1.280823e+06
704.00	1.292778e+06
705.00	1.267232e+06
706.00	1.263251e+06
707.00	1.272467e+06
708.00	1.262878e+06
709.00	1.246607e+06
710.00	1.253092e+06
711.00	1.232317e+06
712.00	1.217171e+06
713.00	1.208878e+06
714.00	1.210120e+06
715.00	1.196398e+06
716.00	1.203084e+06
717.00	1.193131e+06
718.00	1.170462e+06
719.00	1.173126e+06
720.00	1.182690e+06
721.00	1.171517e+06
722.00	1.172781e+06
723.00	1.169702e+06
724.00	1.149581e+06
725.00	1.141803e+06
726.00	1.136441e+06
727.00	1.121361e+06
728.00	1.113807e+06
729.00	1.105552e+06
730.00	1.120834e+06
731.00	1.107865e+06
732.00	1.088350e+06
733.00	1.091038e+06
734.00	1.093569e+06
735.00	1.063963e+06
736.00	1.075085e+06
737.00	1.084744e+06
738.00	1.076461e+06
739.00	1.051836e+06
740.00	1.051836e+06
741.00	1.028980e+06
742.00	1.035733e+06
743.00	1.060192e+06
744.00	1.019283e+06
745.00	1.009289e+06
746.00	1.013919e+06
747.00	1.015502e+06
748.00	1.002151e+06
749.00	1.007701e+06
750.00	9.947054e+05
751.00	9.795919e+05
752.00	9.696494e+05
753.00	9.953575e+05
754.00	9.740238e+05
755.00	9.962160e+05
756.00	9.907424e+05
757.00	9.437607e+05
758.00	9.636397e+05
759.00	9.741001e+05
760.00	9.512706e+05
761.00	9.181688e+05
762.00	9.299131e+05
763.00	9.123126e+05
764.00	9.234244e+05
765.00	9.307984e+05
766.00	9.216964e+05
767.00	8.978959e+05
768.00	8.969941e+05
769.00	9.003777e+05
770.00	8.783901e+05
771.00	8.692523e+05
772.00	9.126613e+05
773.00	8.931061e+05
774.00	8.860997e+05
775.00	8.897476e+05
776.00	8.763632e+05
777.00	8.479829e+05
778.00	8.551727e+05
779.00	8.533852e+05
780.00	8.397492e+05
781.00	8.219285e+05
782.00	8.016793e+05
783.00	8.008353e+05
784.00	8.718991e+05
785.00	8.435429e+05
786.00	8.294950e+05
787.00	8.178749e+05
788.00	8.222892e+05
789.00	7.763852e+05
790.00	8.018593e+05
791.00	8.422572e+05
792.00	8.252907e+05
793.00	8.204002e+05
794.00	7.738336e+05
795.00	7.767731e+05
796.00	7.931611e+05
797.00	7.670021e+05
798.00	7.682692e+05
799.00	7.574074e+05
800.00	7.736976e+05
801.00	7.593956e+05
802.00	7.264170e+05
803.00	7.263422e+05
804.00	7.544718e+05
805.00	7.639281e+05
806.00	7.646876e+05
807.00	7.964011e+05
808.00	7.447616e+05
809.00	6.907853e+05
810.00	6.854992e+05
811.00	7.166747e+05
812.00	7.366429e+05
813.00	7.118525e+05
814.00	7.115701e+05
815.00	6.819434e+05
816.00	6.820299e+05
817.00	6.840475e+05
818.00	6.649257e+05
819.00	6.714975e+05
820.00	6.863720e+05
821.00	6.612859e+05
822.00	6.641433e+05
823.00	6.651872e+05
824.00	6.439624e+05
825.00	6.319066e+05
826.00	6.260729e+05
827.00	6.522281e+05
828.00	6.609823e+05
829.00	6.504019e+05
830.00	6.713372e+05
831.00	6.429517e+05
832.00	7.123317e+05
833.00	6.506811e+05
834.00	6.148510e+05
835.00	6.083170e+05
836.00	5.917657e+05
837.00	6.583500e+05
838.00	6.742891e+05
839.00	6.311456e+05
840.00	5.983624e+05
841.00	6.202508e+05
842.00	6.231732e+05
843.00	6.203694e+05
844.00	6.517269e+05
845.00	6.483729e+05
846.00	6.137538e+05
847.00	5.922315e+05
848.00	6.173181e+05
849.00	6.219684e+05
850.00	6.095503e+05
851.00	6.175250e+05
852.00	6.625358e+05
853.00	6.151524e+05
854.00	6.064401e+05
855.00	6.272003e+05
856.00	6.102844e+05
857.00	6.451164e+05
858.00	6.229246e+05
859.00	6.213880e+05
860.00	6.156935e+05
861.00	6.303569e+05
862.00	6.237681e+05
863.00	5.480375e+05
864.00	5.545469e+05
865.00	5.586751e+05
866.00	5.919691e+05
867.00	6.227215e+05
868.00	7.023098e+05
869.00	6.456318e+05
870.00	6.754950e+05
871.00	6.635449e+05
872.00	6.960041e+05
873.00	6.813804e+05
874.00	6.167137e+05
875.00	6.711590e+05
876.00	6.436629e+05
877.00	6.261557e+05
878.00	5.763935e+05
879.00	6.350503e+05
880.00	6.770409e+05
881.00	6.363417e+05
882.00	5.697875e+05
883.00	6.454688e+05
884.00	6.977098e+05
885.00	5.994215e+05
886.00	6.731453e+05
887.00	7.211719e+05
888.00	7.184884e+05
889.00	7.370333e+05
890.00	6.981843e+05
891.00	7.315271e+05
892.00	6.632660e+05
893.00	7.001723e+05
894.00	4.682936e+05
895.00	6.214583e+05
896.00	5.581111e+05
897.00	5.636485e+05
898.00	6.842769e+05
899.00	5.278578e+05
900.00	5.102259e+05
