/SCAPS Absorption Data - CdS2
/lambda[nm]	alpha[m^-1]
240.00	1.858777e+08
241.00	1.858822e+08
242.00	1.627742e+08
243.00	1.608122e+08
244.00	1.560161e+08
245.00	1.492559e+08
246.00	1.466853e+08
247.00	1.396634e+08
248.00	1.372485e+08
249.00	1.325668e+08
250.00	1.297537e+08
251.00	1.261406e+08
252.00	1.220521e+08
253.00	1.190663e+08
254.00	1.161561e+08
255.00	1.129093e+08
256.00	1.095071e+08
257.00	1.067575e+08
258.00	1.035330e+08
259.00	1.007295e+08
260.00	9.783888e+07
261.00	9.491313e+07
262.00	9.212615e+07
263.00	8.955732e+07
264.00	8.685563e+07
265.00	8.424323e+07
266.00	8.170579e+07
267.00	7.929158e+07
268.00	7.682061e+07
269.00	7.450757e+07
270.00	7.218106e+07
271.00	6.996914e+07
272.00	6.784833e+07
273.00	6.578987e+07
274.00	6.382960e+07
275.00	6.179565e+07
276.00	5.980955e+07
277.00	5.803766e+07
278.00	5.625759e+07
279.00	5.451878e+07
280.00	5.284617e+07
281.00	5.121533e+07
282.00	4.961035e+07
283.00	4.802150e+07
284.00	4.662129e+07
285.00	4.520207e+07
286.00	4.397034e+07
287.00	4.272358e+07
288.00	4.148277e+07
289.00	4.034651e+07
290.00	3.918931e+07
291.00	3.809363e+07
292.00	3.705174e+07
293.00	3.607970e+07
294.00	3.513401e+07
295.00	3.426402e+07
296.00	3.337591e+07
297.00	3.260479e+07
298.00	3.186718e+07
299.00	3.110415e+07
300.00	3.041138e+07
301.00	2.979757e+07
302.00	2.918722e+07
303.00	2.861464e+07
304.00	2.808863e+07
305.00	2.760317e+07
306.00	2.710498e+07
307.00	2.663684e+07
308.00	2.617869e+07
309.00	2.579665e+07
310.00	2.541115e+07
311.00	2.511526e+07
312.00	2.474040e+07
313.00	2.444842e+07
314.00	2.417272e+07
315.00	2.384453e+07
316.00	2.361694e+07
317.00	2.335667e+07
318.00	2.311478e+07
319.00	2.292098e+07
320.00	2.269619e+07
321.00	2.246818e+07
322.00	2.225314e+07
323.00	2.204632e+07
324.00	2.186444e+07
325.00	2.171361e+07
326.00	2.152304e+07
327.00	2.137894e+07
328.00	2.127031e+07
329.00	2.106141e+07
330.00	2.094865e+07
331.00	2.078538e+07
332.00	2.067437e+07
333.00	2.057020e+07
334.00	2.043649e+07
335.00	2.032824e+07
336.00	2.020117e+07
337.00	2.009712e+07
338.00	2.000595e+07
339.00	1.991440e+07
340.00	1.981006e+07
341.00	1.972228e+07
342.00	1.960677e+07
343.00	1.950878e+07
344.00	1.945208e+07
345.00	1.938081e+07
346.00	1.931876e+07
347.00	1.924998e+07
348.00	1.918737e+07
349.00	1.911115e+07
350.00	1.903326e+07
351.00	1.894708e+07
352.00	1.890537e+07
353.00	1.882454e+07
354.00	1.877685e+07
355.00	1.870790e+07
356.00	1.863410e+07
357.00	1.859466e+07
358.00	1.849064e+07
359.00	1.844634e+07
360.00	1.836588e+07
361.00	1.832952e+07
362.00	1.826825e+07
363.00	1.822185e+07
364.00	1.819735e+07
365.00	1.809733e+07
366.00	1.807261e+07
367.00	1.800013e+07
368.00	1.794988e+07
369.00	1.789696e+07
370.00	1.783105e+07
371.00	1.780355e+07
372.00	1.773876e+07
373.00	1.767710e+07
374.00	1.761162e+07
375.00	1.754935e+07
376.00	1.752207e+07
377.00	1.749219e+07
378.00	1.741461e+07
379.00	1.735773e+07
380.00	1.731963e+07
381.00	1.726105e+07
382.00	1.719922e+07
383.00	1.715331e+07
384.00	1.711557e+07
385.00	1.707737e+07
386.00	1.700812e+07
387.00	1.696610e+07
388.00	1.690475e+07
389.00	1.684547e+07
390.00	1.679807e+07
391.00	1.673535e+07
392.00	1.669369e+07
393.00	1.664050e+07
394.00	1.657907e+07
395.00	1.655907e+07
396.00	1.647853e+07
397.00	1.643263e+07
398.00	1.638553e+07
399.00	1.633890e+07
400.00	1.630523e+07
401.00	1.624782e+07
402.00	1.620709e+07
403.00	1.613591e+07
404.00	1.610701e+07
405.00	1.608157e+07
406.00	1.601835e+07
407.00	1.595685e+07
408.00	1.590162e+07
409.00	1.582830e+07
410.00	1.580593e+07
411.00	1.576926e+07
412.00	1.572604e+07
413.00	1.566643e+07
414.00	1.562248e+07
415.00	1.557811e+07
416.00	1.555202e+07
417.00	1.550866e+07
418.00	1.546768e+07
419.00	1.540816e+07
420.00	1.537263e+07
421.00	1.533613e+07
422.00	1.530965e+07
423.00	1.525124e+07
424.00	1.521442e+07
425.00	1.519173e+07
426.00	1.513667e+07
427.00	1.508938e+07
428.00	1.505850e+07
429.00	1.501905e+07
430.00	1.497850e+07
431.00	1.492430e+07
432.00	1.488811e+07
433.00	1.485385e+07
434.00	1.480828e+07
435.00	1.476740e+07
436.00	1.471661e+07
437.00	1.468608e+07
438.00	1.463225e+07
439.00	1.459265e+07
440.00	1.455775e+07
441.00	1.452129e+07
442.00	1.449545e+07
443.00	1.444441e+07
444.00	1.442128e+07
445.00	1.437699e+07
446.00	1.432720e+07
447.00	1.430960e+07
448.00	1.426056e+07
449.00	1.421005e+07
450.00	1.418353e+07
451.00	1.413860e+07
452.00	1.411524e+07
453.00	1.407289e+07
454.00	1.404224e+07
455.00	1.399999e+07
456.00	1.396491e+07
457.00	1.393453e+07
458.00	1.391131e+07
459.00	1.385446e+07
460.00	1.382183e+07
461.00	1.380064e+07
462.00	1.377038e+07
463.00	1.372897e+07
464.00	1.369684e+07
465.00	1.366743e+07
466.00	1.363383e+07
467.00	1.360339e+07
468.00	1.357143e+07
469.00	1.353269e+07
470.00	1.349826e+07
471.00	1.346404e+07
472.00	1.343106e+07
473.00	1.339902e+07
474.00	1.336895e+07
475.00	1.332294e+07
476.00	1.329482e+07
477.00	1.325790e+07
478.00	1.322415e+07
479.00	1.319226e+07
480.00	1.315322e+07
481.00	1.312132e+07
482.00	1.308972e+07
483.00	1.304529e+07
484.00	1.300366e+07
485.00	1.297374e+07
486.00	1.293322e+07
487.00	1.289767e+07
488.00	1.285588e+07
489.00	1.280785e+07
490.00	1.275790e+07
491.00	1.273000e+07
492.00	1.267909e+07
493.00	1.262896e+07
494.00	1.257839e+07
495.00	1.253666e+07
496.00	1.249517e+07
497.00	1.244884e+07
498.00	1.238895e+07
499.00	1.234078e+07
500.00	1.228026e+07
501.00	1.222570e+07
502.00	1.216373e+07
503.00	1.212036e+07
504.00	1.206399e+07
505.00	1.200689e+07
506.00	1.194647e+07
507.00	1.188733e+07
508.00	1.182243e+07
509.00	1.175995e+07
510.00	1.168839e+07
511.00	1.162443e+07
512.00	1.155406e+07
513.00	1.149521e+07
514.00	1.142324e+07
515.00	1.134797e+07
516.00	1.128441e+07
517.00	1.120955e+07
518.00	1.114722e+07
519.00	1.107469e+07
520.00	1.100702e+07
521.00	1.092822e+07
522.00	1.086348e+07
523.00	1.079372e+07
524.00	1.073517e+07
525.00	1.067589e+07
526.00	1.061167e+07
527.00	1.055128e+07
528.00	1.049725e+07
529.00	1.043702e+07
530.00	1.037518e+07
531.00	1.032053e+07
532.00	1.027765e+07
533.00	1.022757e+07
534.00	1.016890e+07
535.00	1.011610e+07
536.00	1.006860e+07
537.00	1.001679e+07
538.00	9.984051e+06
539.00	9.923605e+06
540.00	9.877068e+06
541.00	9.832723e+06
542.00	9.788204e+06
543.00	9.747272e+06
544.00	9.709257e+06
545.00	9.666479e+06
546.00	9.625898e+06
547.00	9.607423e+06
548.00	9.559671e+06
549.00	9.519016e+06
550.00	9.472037e+06
551.00	9.448949e+06
552.00	9.413314e+06
553.00	9.380399e+06
554.00	9.347184e+06
555.00	9.318498e+06
556.00	9.288614e+06
557.00	9.264682e+06
558.00	9.232512e+06
559.00	9.202254e+06
560.00	9.175666e+06
561.00	9.156626e+06
562.00	9.123006e+06
563.00	9.097928e+06
564.00	9.069549e+06
565.00	9.040603e+06
566.00	9.021026e+06
567.00	8.998574e+06
568.00	8.981648e+06
569.00	8.953640e+06
570.00	8.930131e+06
571.00	8.915538e+06
572.00	8.883208e+06
573.00	8.853460e+06
574.00	8.840552e+06
575.00	8.821533e+06
576.00	8.787082e+06
577.00	8.776377e+06
578.00	8.744182e+06
579.00	8.730309e+06
580.00	8.699109e+06
581.00	8.689752e+06
582.00	8.660210e+06
583.00	8.649515e+06
584.00	8.628493e+06
585.00	8.599141e+06
586.00	8.595510e+06
587.00	8.573519e+06
588.00	8.544383e+06
589.00	8.529245e+06
590.00	8.511802e+06
591.00	8.486462e+06
592.00	8.474428e+06
593.00	8.452316e+06
594.00	8.429846e+06
595.00	8.414764e+06
596.00	8.396850e+06
597.00	8.380423e+06
598.00	8.367388e+06
599.00	8.355564e+06
600.00	8.337087e+06
601.00	8.322628e+06
602.00	8.304698e+06
603.00	8.291507e+06
604.00	8.264786e+06
605.00	8.248261e+06
606.00	8.231317e+06
607.00	8.217920e+06
608.00	8.191012e+06
609.00	8.184953e+06
610.00	8.172489e+06
611.00	8.154331e+06
612.00	8.151051e+06
613.00	8.132153e+06
614.00	8.111036e+06
615.00	8.088427e+06
616.00	8.088265e+06
617.00	8.070857e+06
618.00	8.065675e+06
619.00	8.038109e+06
620.00	8.022032e+06
621.00	7.993983e+06
622.00	7.995179e+06
623.00	7.983187e+06
624.00	7.961933e+06
625.00	7.945272e+06
626.00	7.932599e+06
627.00	7.919699e+06
628.00	7.910783e+06
629.00	7.906892e+06
630.00	7.887595e+06
631.00	7.866537e+06
632.00	7.876209e+06
633.00	7.861455e+06
634.00	7.833267e+06
635.00	7.816847e+06
636.00	7.798884e+06
637.00	7.804886e+06
638.00	7.777873e+06
639.00	7.770200e+06
640.00	7.759733e+06
641.00	7.748628e+06
642.00	7.730619e+06
643.00	7.725170e+06
644.00	7.698053e+06
645.00	7.698191e+06
646.00	7.693382e+06
647.00	7.681960e+06
648.00	7.650621e+06
649.00	7.639825e+06
650.00	7.624778e+06
651.00	7.623524e+06
652.00	7.620163e+06
653.00	7.593550e+06
654.00	7.604413e+06
655.00	7.574376e+06
656.00	7.576855e+06
657.00	7.543157e+06
658.00	7.548586e+06
659.00	7.542816e+06
660.00	7.509689e+06
661.00	7.509048e+06
662.00	7.499361e+06
663.00	7.479110e+06
664.00	7.476089e+06
665.00	7.463755e+06
666.00	7.445184e+06
667.00	7.441828e+06
668.00	7.421709e+06
669.00	7.415421e+06
670.00	7.399601e+06
671.00	7.392347e+06
672.00	7.379018e+06
673.00	7.373126e+06
674.00	7.364805e+06
675.00	7.346673e+06
676.00	7.331168e+06
677.00	7.328872e+06
678.00	7.310095e+06
679.00	7.286648e+06
680.00	7.291152e+06
681.00	7.277318e+06
682.00	7.277183e+06
683.00	7.257720e+06
684.00	7.271503e+06
685.00	7.247101e+06
686.00	7.241417e+06
687.00	7.225322e+06
688.00	7.206964e+06
689.00	7.192115e+06
690.00	7.191345e+06
691.00	7.176129e+06
692.00	7.160705e+06
693.00	7.159444e+06
694.00	7.140444e+06
695.00	7.145492e+06
696.00	7.133085e+06
697.00	7.125687e+06
698.00	7.118597e+06
699.00	7.107457e+06
700.00	7.096541e+06
701.00	7.091047e+06
702.00	7.083151e+06
703.00	7.064108e+06
704.00	7.077700e+06
705.00	7.044936e+06
706.00	7.040113e+06
707.00	7.047992e+06
708.00	7.037205e+06
709.00	7.018573e+06
710.00	7.021183e+06
711.00	6.997457e+06
712.00	6.982529e+06
713.00	6.973263e+06
714.00	6.970734e+06
715.00	6.949761e+06
716.00	6.961321e+06
717.00	6.941245e+06
718.00	6.916515e+06
719.00	6.913420e+06
720.00	6.929535e+06
721.00	6.913337e+06
722.00	6.915722e+06
723.00	6.908141e+06
724.00	6.886559e+06
725.00	6.867880e+06
726.00	6.865579e+06
727.00	6.846088e+06
728.00	6.833279e+06
729.00	6.821652e+06
730.00	6.847460e+06
731.00	6.821740e+06
732.00	6.799439e+06
733.00	6.803049e+06
734.00	6.810064e+06
735.00	6.760465e+06
736.00	6.779482e+06
737.00	6.790829e+06
738.00	6.772914e+06
739.00	6.749010e+06
740.00	6.749010e+06
741.00	6.719541e+06
742.00	6.724067e+06
743.00	6.753313e+06
744.00	6.697996e+06
745.00	6.683736e+06
746.00	6.689132e+06
747.00	6.688139e+06
748.00	6.673123e+06
749.00	6.683830e+06
750.00	6.668302e+06
751.00	6.650806e+06
752.00	6.640181e+06
753.00	6.661085e+06
754.00	6.636484e+06
755.00	6.657974e+06
756.00	6.657047e+06
757.00	6.590210e+06
758.00	6.613872e+06
759.00	6.623571e+06
760.00	6.606471e+06
761.00	6.551295e+06
762.00	6.571500e+06
763.00	6.542778e+06
764.00	6.550640e+06
765.00	6.572448e+06
766.00	6.553725e+06
767.00	6.515956e+06
768.00	6.512894e+06
769.00	6.519514e+06
770.00	6.485914e+06
771.00	6.480163e+06
772.00	6.542553e+06
773.00	6.508577e+06
774.00	6.507661e+06
775.00	6.504678e+06
776.00	6.493931e+06
777.00	6.444311e+06
778.00	6.448427e+06
779.00	6.443811e+06
780.00	6.421382e+06
781.00	6.415461e+06
782.00	6.389377e+06
783.00	6.373897e+06
784.00	6.463829e+06
785.00	6.417217e+06
786.00	6.405576e+06
787.00	6.410060e+06
788.00	6.398437e+06
789.00	6.341626e+06
790.00	6.371994e+06
791.00	6.428571e+06
792.00	6.402860e+06
793.00	6.401060e+06
794.00	6.346705e+06
795.00	6.328521e+06
796.00	6.353192e+06
797.00	6.322374e+06
798.00	6.310818e+06
799.00	6.299135e+06
800.00	6.333026e+06
801.00	6.307133e+06
802.00	6.280108e+06
803.00	6.256542e+06
804.00	6.299884e+06
805.00	6.309903e+06
806.00	6.299760e+06
807.00	6.347374e+06
808.00	6.281624e+06
809.00	6.223403e+06
810.00	6.212588e+06
811.00	6.240872e+06
812.00	6.266275e+06
813.00	6.241852e+06
814.00	6.231766e+06
815.00	6.202429e+06
816.00	6.210363e+06
817.00	6.190385e+06
818.00	6.173250e+06
819.00	6.176411e+06
820.00	6.198008e+06
821.00	6.170686e+06
822.00	6.150114e+06
823.00	6.165996e+06
824.00	6.128349e+06
825.00	6.124547e+06
826.00	6.109658e+06
827.00	6.160025e+06
828.00	6.174281e+06
829.00	6.135746e+06
830.00	6.177444e+06
831.00	6.129971e+06
832.00	6.222662e+06
833.00	6.144936e+06
834.00	6.102689e+06
835.00	6.071950e+06
836.00	6.061479e+06
837.00	6.154408e+06
838.00	6.195245e+06
839.00	6.132936e+06
840.00	6.069503e+06
841.00	6.110171e+06
842.00	6.125706e+06
843.00	6.120419e+06
844.00	6.161296e+06
845.00	6.168707e+06
846.00	6.111477e+06
847.00	6.086319e+06
848.00	6.094030e+06
849.00	6.125315e+06
850.00	6.088970e+06
851.00	6.126577e+06
852.00	6.159673e+06
853.00	6.113891e+06
854.00	6.101177e+06
855.00	6.148338e+06
856.00	6.122865e+06
857.00	6.138938e+06
858.00	6.134055e+06
859.00	6.134669e+06
860.00	6.101483e+06
861.00	6.139035e+06
862.00	6.148277e+06
863.00	6.046889e+06
864.00	6.049045e+06
865.00	6.066695e+06
866.00	6.108451e+06
867.00	6.146696e+06
868.00	6.270357e+06
869.00	6.185415e+06
870.00	6.227648e+06
871.00	6.157749e+06
872.00	6.227811e+06
873.00	6.230346e+06
874.00	6.146291e+06
875.00	6.241755e+06
876.00	6.194352e+06
877.00	6.162808e+06
878.00	6.092446e+06
879.00	6.192375e+06
880.00	6.195041e+06
881.00	6.122391e+06
882.00	6.082605e+06
883.00	6.219944e+06
884.00	6.242313e+06
885.00	6.148486e+06
886.00	6.251007e+06
887.00	6.274169e+06
888.00	6.282144e+06
889.00	6.321672e+06
890.00	6.222172e+06
891.00	6.324979e+06
892.00	6.244804e+06
893.00	6.338070e+06
894.00	5.994147e+06
895.00	6.264430e+06
896.00	6.161651e+06
897.00	6.115841e+06
898.00	6.279162e+06
899.00	6.182848e+06
900.00	6.119275e+06
