/SCAPS Absorption Data - CdS3
/lambda[nm]	alpha[m^-1]
236.00	1.849525e+08
238.00	1.696728e+08
239.00	1.618444e+08
240.00	1.550866e+08
241.00	1.513679e+08
242.00	1.465803e+08
243.00	1.422179e+08
244.00	1.377461e+08
245.00	1.338360e+08
246.00	1.297324e+08
247.00	1.257144e+08
248.00	1.226718e+08
249.00	1.189563e+08
250.00	1.160568e+08
251.00	1.125642e+08
252.00	1.089755e+08
253.00	1.059603e+08
254.00	1.027333e+08
255.00	9.982141e+07
256.00	9.675061e+07
257.00	9.370329e+07
258.00	9.070973e+07
259.00	8.790406e+07
260.00	8.507532e+07
261.00	8.224704e+07
262.00	7.960348e+07
263.00	7.690855e+07
264.00	7.432861e+07
265.00	7.169730e+07
266.00	6.917039e+07
267.00	6.683310e+07
268.00	6.432799e+07
269.00	6.205560e+07
270.00	5.980847e+07
271.00	5.755587e+07
272.00	5.549484e+07
273.00	5.340329e+07
274.00	5.143935e+07
275.00	4.941522e+07
276.00	4.754486e+07
277.00	4.571210e+07
278.00	4.400738e+07
279.00	4.230969e+07
280.00	4.063531e+07
281.00	3.904037e+07
282.00	3.743835e+07
283.00	3.592687e+07
284.00	3.453035e+07
285.00	3.309698e+07
286.00	3.188198e+07
287.00	3.061968e+07
288.00	2.942798e+07
289.00	2.829412e+07
290.00	2.714788e+07
291.00	2.606903e+07
292.00	2.510014e+07
293.00	2.410695e+07
294.00	2.316713e+07
295.00	2.231004e+07
296.00	2.145925e+07
297.00	2.067552e+07
298.00	1.995373e+07
299.00	1.921137e+07
300.00	1.857249e+07
301.00	1.794307e+07
302.00	1.736252e+07
303.00	1.681953e+07
304.00	1.630378e+07
305.00	1.581831e+07
306.00	1.533069e+07
307.00	1.489316e+07
308.00	1.447862e+07
309.00	1.410297e+07
310.00	1.377995e+07
311.00	1.340811e+07
312.00	1.311477e+07
313.00	1.285722e+07
314.00	1.256239e+07
315.00	1.234071e+07
316.00	1.212613e+07
317.00	1.186289e+07
318.00	1.166056e+07
319.00	1.145931e+07
320.00	1.125232e+07
321.00	1.108168e+07
322.00	1.091279e+07
323.00	1.075803e+07
324.00	1.060929e+07
325.00	1.050332e+07
326.00	1.036516e+07
327.00	1.023591e+07
328.00	1.012784e+07
329.00	1.000535e+07
330.00	9.903174e+06
331.00	9.810843e+06
332.00	9.758256e+06
333.00	9.674432e+06
334.00	9.585499e+06
335.00	9.511296e+06
336.00	9.438219e+06
337.00	9.346153e+06
338.00	9.282998e+06
339.00	9.290036e+06
340.00	9.233658e+06
341.00	9.191678e+06
342.00	9.142485e+06
343.00	9.073375e+06
344.00	9.050043e+06
345.00	9.030586e+06
346.00	9.018910e+06
347.00	9.008341e+06
348.00	8.928919e+06
349.00	8.913819e+06
350.00	8.930586e+06
351.00	8.881328e+06
352.00	8.837054e+06
353.00	8.841783e+06
354.00	8.803151e+06
355.00	8.816799e+06
356.00	8.768826e+06
357.00	8.750293e+06
358.00	8.718031e+06
359.00	8.698776e+06
360.00	8.710432e+06
361.00	8.691094e+06
362.00	8.723837e+06
363.00	8.688505e+06
364.00	8.645489e+06
365.00	8.614673e+06
366.00	8.654389e+06
367.00	8.628878e+06
368.00	8.629904e+06
369.00	8.597990e+06
370.00	8.596523e+06
371.00	8.604082e+06
372.00	8.608554e+06
373.00	8.572173e+06
374.00	8.561110e+06
375.00	8.543950e+06
376.00	8.566390e+06
377.00	8.580758e+06
378.00	8.548803e+06
379.00	8.523535e+06
380.00	8.496698e+06
381.00	8.532894e+06
382.00	8.502347e+06
383.00	8.477354e+06
384.00	8.472618e+06
385.00	8.491514e+06
386.00	8.447831e+06
387.00	8.457279e+06
388.00	8.437026e+06
389.00	8.431965e+06
390.00	8.416783e+06
391.00	8.403885e+06
392.00	8.388817e+06
393.00	8.386524e+06
394.00	8.353307e+06
395.00	8.375233e+06
396.00	8.339378e+06
397.00	8.334688e+06
398.00	8.333395e+06
399.00	8.324599e+06
400.00	8.314386e+06
401.00	8.298584e+06
402.00	8.288443e+06
403.00	8.270501e+06
404.00	8.272773e+06
405.00	8.299107e+06
406.00	8.299838e+06
407.00	8.267527e+06
408.00	8.227415e+06
409.00	8.196848e+06
410.00	8.183572e+06
411.00	8.204615e+06
412.00	8.198845e+06
413.00	8.192596e+06
414.00	8.160558e+06
415.00	8.143111e+06
416.00	8.180089e+06
417.00	8.171380e+06
418.00	8.172761e+06
419.00	8.120181e+06
420.00	8.127988e+06
421.00	8.131399e+06
422.00	8.140784e+06
423.00	8.107767e+06
424.00	8.113833e+06
425.00	8.120796e+06
426.00	8.098544e+06
427.00	8.097755e+06
428.00	8.095652e+06
429.00	8.100362e+06
430.00	8.084298e+06
431.00	8.072272e+06
432.00	8.050662e+06
433.00	8.051342e+06
434.00	8.035590e+06
435.00	8.029537e+06
436.00	8.026874e+06
437.00	8.025925e+06
438.00	8.000930e+06
439.00	8.002349e+06
440.00	7.980114e+06
441.00	7.990099e+06
442.00	7.985226e+06
443.00	7.988950e+06
444.00	7.974265e+06
445.00	7.970851e+06
446.00	7.957222e+06
447.00	7.956898e+06
448.00	7.955751e+06
449.00	7.927289e+06
450.00	7.934762e+06
451.00	7.907009e+06
452.00	7.904328e+06
453.00	7.901993e+06
454.00	7.890735e+06
455.00	7.863555e+06
456.00	7.874636e+06
457.00	7.867642e+06
458.00	7.854008e+06
459.00	7.837057e+06
460.00	7.845251e+06
461.00	7.829260e+06
462.00	7.816667e+06
463.00	7.803668e+06
464.00	7.799886e+06
465.00	7.795686e+06
466.00	7.780162e+06
467.00	7.764370e+06
468.00	7.760656e+06
469.00	7.734347e+06
470.00	7.718939e+06
471.00	7.710033e+06
472.00	7.698718e+06
473.00	7.682113e+06
474.00	7.683014e+06
475.00	7.647141e+06
476.00	7.645243e+06
477.00	7.627674e+06
478.00	7.589971e+06
479.00	7.588190e+06
480.00	7.574511e+06
481.00	7.557460e+06
482.00	7.549374e+06
483.00	7.512723e+06
484.00	7.482039e+06
485.00	7.497791e+06
486.00	7.476954e+06
487.00	7.465757e+06
488.00	7.443558e+06
489.00	7.420462e+06
490.00	7.409246e+06
491.00	7.394146e+06
492.00	7.372408e+06
493.00	7.362544e+06
494.00	7.342251e+06
495.00	7.330580e+06
496.00	7.333981e+06
497.00	7.324541e+06
498.00	7.293974e+06
499.00	7.292499e+06
500.00	7.264177e+06
501.00	7.254009e+06
502.00	7.243131e+06
503.00	7.236409e+06
504.00	7.232299e+06
505.00	7.226111e+06
506.00	7.205253e+06
507.00	7.199110e+06
508.00	7.194641e+06
509.00	7.186878e+06
510.00	7.178992e+06
511.00	7.169074e+06
512.00	7.154391e+06
513.00	7.137175e+06
514.00	7.145135e+06
515.00	7.128336e+06
516.00	7.112854e+06
517.00	7.111762e+06
518.00	7.105591e+06
519.00	7.095515e+06
520.00	7.086379e+06
521.00	7.076900e+06
522.00	7.071528e+06
523.00	7.052666e+06
524.00	7.058541e+06
525.00	7.049676e+06
526.00	7.039261e+06
527.00	7.028490e+06
528.00	7.011236e+06
529.00	7.010189e+06
530.00	7.013077e+06
531.00	7.008408e+06
532.00	6.991971e+06
533.00	6.984107e+06
534.00	6.981270e+06
535.00	6.966720e+06
536.00	6.969209e+06
537.00	6.957552e+06
538.00	6.940378e+06
539.00	6.929817e+06
540.00	6.921942e+06
541.00	6.923394e+06
542.00	6.908744e+06
543.00	6.903363e+06
544.00	6.895352e+06
545.00	6.898328e+06
546.00	6.877872e+06
547.00	6.881533e+06
548.00	6.885244e+06
549.00	6.876899e+06
550.00	6.862304e+06
551.00	6.854846e+06
552.00	6.839811e+06
553.00	6.841668e+06
554.00	6.828074e+06
555.00	6.828853e+06
556.00	6.824028e+06
557.00	6.812525e+06
558.00	6.815941e+06
559.00	6.809834e+06
560.00	6.796947e+06
561.00	6.792563e+06
562.00	6.799453e+06
563.00	6.790686e+06
564.00	6.773920e+06
565.00	6.764953e+06
566.00	6.765549e+06
567.00	6.762396e+06
568.00	6.759850e+06
569.00	6.755719e+06
570.00	6.748430e+06
571.00	6.746365e+06
572.00	6.733519e+06
573.00	6.728401e+06
574.00	6.723979e+06
575.00	6.723757e+06
576.00	6.702255e+06
577.00	6.706130e+06
578.00	6.701145e+06
579.00	6.688169e+06
580.00	6.682977e+06
581.00	6.681701e+06
582.00	6.670616e+06
583.00	6.666475e+06
584.00	6.673108e+06
585.00	6.661502e+06
586.00	6.654349e+06
587.00	6.649595e+06
588.00	6.656468e+06
589.00	6.629901e+06
590.00	6.629380e+06
591.00	6.627911e+06
592.00	6.628353e+06
593.00	6.626484e+06
594.00	6.628099e+06
595.00	6.606936e+06
596.00	6.605467e+06
597.00	6.592811e+06
598.00	6.586378e+06
599.00	6.593390e+06
600.00	6.581264e+06
601.00	6.589589e+06
602.00	6.580135e+06
603.00	6.575000e+06
604.00	6.561950e+06
605.00	6.568607e+06
606.00	6.553487e+06
607.00	6.547988e+06
608.00	6.553924e+06
609.00	6.540202e+06
610.00	6.538322e+06
611.00	6.537516e+06
612.00	6.538899e+06
613.00	6.520795e+06
614.00	6.521156e+06
615.00	6.513455e+06
616.00	6.503902e+06
617.00	6.502067e+06
618.00	6.492919e+06
619.00	6.507639e+06
620.00	6.477477e+06
621.00	6.474194e+06
622.00	6.472595e+06
623.00	6.469077e+06
624.00	6.463600e+06
625.00	6.463747e+06
626.00	6.451773e+06
627.00	6.442698e+06
628.00	6.443269e+06
629.00	6.438900e+06
630.00	6.439366e+06
631.00	6.438295e+06
632.00	6.430255e+06
633.00	6.429512e+06
634.00	6.420430e+06
635.00	6.408518e+06
636.00	6.413536e+06
637.00	6.410300e+06
638.00	6.402328e+06
639.00	6.402810e+06
640.00	6.389887e+06
641.00	6.386992e+06
642.00	6.368716e+06
643.00	6.381331e+06
644.00	6.348769e+06
645.00	6.340532e+06
646.00	6.345251e+06
647.00	6.341036e+06
648.00	6.333904e+06
649.00	6.337423e+06
650.00	6.330536e+06
651.00	6.327974e+06
652.00	6.339686e+06
653.00	6.335104e+06
654.00	6.312272e+06
655.00	6.330972e+06
656.00	6.311405e+06
657.00	6.303138e+06
658.00	6.303588e+06
659.00	6.298781e+06
660.00	6.285309e+06
661.00	6.275583e+06
662.00	6.285153e+06
663.00	6.266179e+06
664.00	6.267120e+06
665.00	6.265748e+06
666.00	6.243547e+06
667.00	6.261136e+06
668.00	6.229973e+06
669.00	6.235611e+06
670.00	6.211249e+06
671.00	6.210852e+06
672.00	6.221534e+06
673.00	6.232615e+06
674.00	6.221202e+06
675.00	6.179992e+06
676.00	6.186373e+06
677.00	6.177463e+06
678.00	6.174614e+06
679.00	6.173290e+06
680.00	6.174954e+06
681.00	6.175244e+06
682.00	6.158050e+06
683.00	6.152400e+06
684.00	6.161657e+06
685.00	6.161720e+06
686.00	6.128060e+06
687.00	6.133569e+06
688.00	6.125234e+06
689.00	6.100736e+06
690.00	6.124047e+06
691.00	6.095467e+06
692.00	6.113603e+06
693.00	6.087978e+06
694.00	6.090090e+06
695.00	6.089378e+06
696.00	6.102098e+06
697.00	6.074839e+06
698.00	6.051684e+06
699.00	6.074121e+06
700.00	6.072917e+06
701.00	6.049415e+06
702.00	6.046503e+06
703.00	6.038787e+06
704.00	6.014085e+06
705.00	6.032774e+06
706.00	6.028874e+06
707.00	6.029524e+06
708.00	6.040150e+06
709.00	6.027627e+06
710.00	6.018321e+06
711.00	5.998805e+06
712.00	5.991630e+06
713.00	5.976453e+06
714.00	5.979916e+06
715.00	5.977373e+06
716.00	5.980995e+06
717.00	5.968746e+06
718.00	5.955648e+06
719.00	5.955784e+06
720.00	5.953521e+06
721.00	5.953545e+06
722.00	5.962472e+06
723.00	5.945777e+06
724.00	5.914807e+06
725.00	5.923511e+06
726.00	5.913755e+06
727.00	5.893862e+06
728.00	5.916063e+06
729.00	5.910327e+06
730.00	5.882807e+06
731.00	5.888617e+06
732.00	5.895591e+06
733.00	5.913253e+06
734.00	5.872795e+06
735.00	5.868501e+06
736.00	5.858521e+06
737.00	5.868749e+06
738.00	5.852065e+06
739.00	5.866800e+06
740.00	5.849017e+06
741.00	5.822087e+06
742.00	5.817602e+06
743.00	5.814430e+06
744.00	5.824370e+06
745.00	5.807144e+06
746.00	5.795138e+06
747.00	5.788154e+06
748.00	5.763978e+06
749.00	5.755536e+06
750.00	5.777638e+06
751.00	5.780420e+06
752.00	5.818763e+06
753.00	5.779901e+06
754.00	5.804754e+06
755.00	5.793739e+06
756.00	5.758315e+06
757.00	5.750050e+06
758.00	5.746293e+06
759.00	5.756034e+06
760.00	5.752251e+06
761.00	5.729854e+06
762.00	5.706488e+06
763.00	5.745729e+06
764.00	5.703688e+06
765.00	5.722559e+06
766.00	5.704940e+06
767.00	5.703935e+06
768.00	5.677548e+06
769.00	5.696906e+06
770.00	5.663469e+06
771.00	5.700653e+06
772.00	5.660967e+06
773.00	5.682823e+06
774.00	5.652609e+06
775.00	5.681358e+06
776.00	5.666527e+06
777.00	5.686651e+06
778.00	5.612947e+06
779.00	5.655115e+06
780.00	5.601451e+06
781.00	5.646402e+06
782.00	5.614706e+06
783.00	5.572515e+06
784.00	5.613883e+06
785.00	5.605990e+06
786.00	5.622352e+06
787.00	5.632584e+06
788.00	5.571356e+06
789.00	5.591493e+06
790.00	5.614596e+06
791.00	5.642400e+06
792.00	5.567240e+06
793.00	5.613982e+06
794.00	5.579933e+06
795.00	5.509567e+06
796.00	5.593078e+06
797.00	5.520726e+06
798.00	5.484761e+06
799.00	5.585936e+06
800.00	5.530718e+06
801.00	5.485269e+06
802.00	5.493578e+06
803.00	5.515946e+06
804.00	5.497710e+06
805.00	5.519786e+06
806.00	5.540618e+06
807.00	5.540762e+06
808.00	5.566367e+06
809.00	5.496784e+06
810.00	5.476214e+06
811.00	5.473366e+06
812.00	5.518396e+06
813.00	5.515676e+06
814.00	5.459487e+06
815.00	5.465951e+06
816.00	5.446666e+06
817.00	5.448616e+06
818.00	5.462402e+06
819.00	5.453788e+06
820.00	5.446481e+06
821.00	5.423589e+06
822.00	5.425688e+06
823.00	5.413312e+06
824.00	5.478381e+06
825.00	5.456283e+06
826.00	5.361922e+06
827.00	5.383450e+06
828.00	5.466626e+06
829.00	5.452171e+06
830.00	5.393024e+06
831.00	5.349935e+06
832.00	5.432230e+06
833.00	5.405507e+06
834.00	5.436834e+06
835.00	5.366414e+06
836.00	5.371273e+06
837.00	5.454346e+06
838.00	5.396105e+06
839.00	5.396965e+06
840.00	5.382476e+06
841.00	5.446039e+06
842.00	5.434801e+06
843.00	5.489168e+06
844.00	5.467763e+06
845.00	5.488698e+06
846.00	5.425127e+06
847.00	5.389910e+06
848.00	5.460426e+06
849.00	5.425954e+06
850.00	5.489908e+06
851.00	5.462747e+06
852.00	5.425362e+06
853.00	5.409536e+06
854.00	5.480948e+06
855.00	5.514265e+06
856.00	5.445579e+06
857.00	5.453412e+06
858.00	5.485877e+06
859.00	5.479456e+06
860.00	5.492411e+06
861.00	5.458619e+06
862.00	5.490253e+06
863.00	5.391474e+06
864.00	5.445062e+06
865.00	5.391294e+06
866.00	5.540620e+06
867.00	5.559966e+06
868.00	5.544528e+06
869.00	5.508692e+06
870.00	5.580841e+06
871.00	5.614454e+06
872.00	5.542110e+06
873.00	5.594624e+06
874.00	5.585010e+06
875.00	5.492853e+06
876.00	5.584890e+06
877.00	5.722747e+06
878.00	5.522276e+06
879.00	5.591772e+06
880.00	5.588216e+06
881.00	5.393886e+06
882.00	5.537845e+06
883.00	5.580144e+06
884.00	5.490809e+06
885.00	5.629667e+06
886.00	5.454522e+06
887.00	5.667427e+06
888.00	5.734156e+06
889.00	5.569509e+06
890.00	5.596622e+06
891.00	5.699863e+06
892.00	5.786544e+06
893.00	5.661291e+06
894.00	5.574104e+06
895.00	5.645451e+06
896.00	5.638660e+06
897.00	5.782009e+06
898.00	5.770904e+06
899.00	5.757323e+06
900.00	5.848095e+06
