/SCAPS Absorption Data - CdS3
/lambda[nm]	alpha[m^-1]
200.00	3.816513e+08
201.00	3.816704e+08
202.00	3.816995e+08
203.00	3.817725e+08
204.00	3.817300e+08
205.00	3.817569e+08
206.00	3.817930e+08
207.00	3.817983e+08
208.00	3.817948e+08
209.00	3.818096e+08
210.00	3.817969e+08
211.00	3.817824e+08
212.00	3.817516e+08
213.00	3.817527e+08
214.00	3.817293e+08
215.00	3.816935e+08
216.00	3.816790e+08
217.00	3.816626e+08
218.00	3.816328e+08
219.00	3.816161e+08
220.00	3.816076e+08
221.00	3.815965e+08
222.00	3.816047e+08
223.00	3.815755e+08
224.00	3.815827e+08
225.00	3.815862e+08
226.00	3.815830e+08
227.00	3.815891e+08
228.00	3.815923e+08
229.00	3.815951e+08
230.00	3.816111e+08
231.00	3.816037e+08
232.00	3.816136e+08
233.00	3.816182e+08
234.00	3.816204e+08
235.00	3.816225e+08
236.00	1.781947e+08
237.00	3.816214e+08
238.00	1.629150e+08
239.00	1.550866e+08
240.00	1.483288e+08
241.00	1.446101e+08
242.00	1.398226e+08
243.00	1.354601e+08
244.00	1.309883e+08
245.00	1.270783e+08
246.00	1.229746e+08
247.00	1.189567e+08
248.00	1.159141e+08
249.00	1.121986e+08
250.00	1.092991e+08
251.00	1.058065e+08
252.00	1.022178e+08
253.00	9.920253e+07
254.00	9.597550e+07
255.00	9.306366e+07
256.00	8.999285e+07
257.00	8.694554e+07
258.00	8.395198e+07
259.00	8.114630e+07
260.00	7.831756e+07
261.00	7.548928e+07
262.00	7.284572e+07
263.00	7.015078e+07
264.00	6.757084e+07
265.00	6.493953e+07
266.00	6.241262e+07
267.00	6.007531e+07
268.00	5.757020e+07
269.00	5.529779e+07
270.00	5.305065e+07
271.00	5.079802e+07
272.00	4.873697e+07
273.00	4.664539e+07
274.00	4.468140e+07
275.00	4.265722e+07
276.00	4.078680e+07
277.00	3.895397e+07
278.00	3.724916e+07
279.00	3.555136e+07
280.00	3.387685e+07
281.00	3.228175e+07
282.00	3.067955e+07
283.00	2.916783e+07
284.00	2.777108e+07
285.00	2.633741e+07
286.00	2.512212e+07
287.00	2.385945e+07
288.00	2.266738e+07
289.00	2.153312e+07
290.00	2.038627e+07
291.00	1.930685e+07
292.00	1.833741e+07
293.00	1.734341e+07
294.00	1.665699e+07
295.00	1.582426e+07
296.00	1.499875e+07
297.00	1.424031e+07
298.00	1.354568e+07
299.00	1.283356e+07
300.00	1.222182e+07
301.00	1.162124e+07
302.00	1.106818e+07
303.00	1.054868e+07
304.00	1.005947e+07
305.00	9.599793e+06
306.00	9.139212e+06
307.00	8.733788e+06
308.00	8.343748e+06
309.00	7.989754e+06
310.00	7.688543e+06
311.00	7.342110e+06
312.00	7.063030e+06
313.00	6.826297e+06
314.00	6.554269e+06
315.00	6.344681e+06
316.00	6.139356e+06
317.00	5.903524e+06
318.00	5.717377e+06
319.00	5.528369e+06
320.00	5.340322e+06
321.00	5.175686e+06
322.00	5.020397e+06
323.00	4.877397e+06
324.00	4.742544e+06
325.00	4.645109e+06
326.00	4.518184e+06
327.00	4.402047e+06
328.00	4.300412e+06
329.00	4.184004e+06
330.00	4.083415e+06
331.00	4.004963e+06
332.00	3.948487e+06
333.00	3.871959e+06
334.00	3.794905e+06
335.00	3.724570e+06
336.00	3.648836e+06
337.00	3.571056e+06
338.00	3.512530e+06
339.00	3.513630e+06
340.00	3.464208e+06
341.00	3.426593e+06
342.00	3.374283e+06
343.00	3.316683e+06
344.00	3.288560e+06
345.00	3.274797e+06
346.00	3.255384e+06
347.00	3.246951e+06
348.00	3.174921e+06
349.00	3.161798e+06
350.00	3.167763e+06
351.00	3.122891e+06
352.00	3.090960e+06
353.00	3.085887e+06
354.00	3.053106e+06
355.00	3.063666e+06
356.00	3.023632e+06
357.00	2.997895e+06
358.00	2.967679e+06
359.00	2.953359e+06
360.00	2.960591e+06
361.00	2.943403e+06
362.00	2.965331e+06
363.00	2.935641e+06
364.00	2.894040e+06
365.00	2.861371e+06
366.00	2.902101e+06
367.00	2.882203e+06
368.00	2.880352e+06
369.00	2.853022e+06
370.00	2.854465e+06
371.00	2.849281e+06
372.00	2.856150e+06
373.00	2.834203e+06
374.00	2.816656e+06
375.00	2.807517e+06
376.00	2.816798e+06
377.00	2.818048e+06
378.00	2.798540e+06
379.00	2.778771e+06
380.00	2.757425e+06
381.00	2.780489e+06
382.00	2.751106e+06
383.00	2.733209e+06
384.00	2.721371e+06
385.00	2.732459e+06
386.00	2.701696e+06
387.00	2.708039e+06
388.00	2.688137e+06
389.00	2.680557e+06
390.00	2.668864e+06
391.00	2.658561e+06
392.00	2.641881e+06
393.00	2.636501e+06
394.00	2.610219e+06
395.00	2.619218e+06
396.00	2.600959e+06
397.00	2.601194e+06
398.00	2.596621e+06
399.00	2.584541e+06
400.00	2.572881e+06
401.00	2.559880e+06
402.00	2.551414e+06
403.00	2.538049e+06
404.00	2.533276e+06
405.00	2.552728e+06
406.00	2.545380e+06
407.00	2.528754e+06
408.00	2.495577e+06
409.00	2.477988e+06
410.00	2.464852e+06
411.00	2.477945e+06
412.00	2.473441e+06
413.00	2.464212e+06
414.00	2.443514e+06
415.00	2.426107e+06
416.00	2.444593e+06
417.00	2.443656e+06
418.00	2.439519e+06
419.00	2.409136e+06
420.00	2.401260e+06
421.00	2.406341e+06
422.00	2.408651e+06
423.00	2.383526e+06
424.00	2.385261e+06
425.00	2.387580e+06
426.00	2.371241e+06
427.00	2.364793e+06
428.00	2.362066e+06
429.00	2.360874e+06
430.00	2.343954e+06
431.00	2.337176e+06
432.00	2.323614e+06
433.00	2.323612e+06
434.00	2.314126e+06
435.00	2.303252e+06
436.00	2.302677e+06
437.00	2.298986e+06
438.00	2.276922e+06
439.00	2.275948e+06
440.00	2.259916e+06
441.00	2.267449e+06
442.00	2.258934e+06
443.00	2.262412e+06
444.00	2.248698e+06
445.00	2.249094e+06
446.00	2.238289e+06
447.00	2.230555e+06
448.00	2.233458e+06
449.00	2.212653e+06
450.00	2.213218e+06
451.00	2.195136e+06
452.00	2.190323e+06
453.00	2.186088e+06
454.00	2.176864e+06
455.00	2.156897e+06
456.00	2.157845e+06
457.00	2.152474e+06
458.00	2.140776e+06
459.00	2.123531e+06
460.00	2.132343e+06
461.00	2.116639e+06
462.00	2.106690e+06
463.00	2.096365e+06
464.00	2.090249e+06
465.00	2.084517e+06
466.00	2.069244e+06
467.00	2.054369e+06
468.00	2.049604e+06
469.00	2.027896e+06
470.00	2.015722e+06
471.00	2.007927e+06
472.00	1.994632e+06
473.00	1.981345e+06
474.00	1.981536e+06
475.00	1.951964e+06
476.00	1.946668e+06
477.00	1.932098e+06
478.00	1.904500e+06
479.00	1.900352e+06
480.00	1.889030e+06
481.00	1.873386e+06
482.00	1.860595e+06
483.00	1.837430e+06
484.00	1.812629e+06
485.00	1.819036e+06
486.00	1.802891e+06
487.00	1.792580e+06
488.00	1.774778e+06
489.00	1.756805e+06
490.00	1.744106e+06
491.00	1.731217e+06
492.00	1.715712e+06
493.00	1.703610e+06
494.00	1.690916e+06
495.00	1.680307e+06
496.00	1.678841e+06
497.00	1.664737e+06
498.00	1.645007e+06
499.00	1.642969e+06
500.00	1.623089e+06
501.00	1.613087e+06
502.00	1.605480e+06
503.00	1.596427e+06
504.00	1.590336e+06
505.00	1.584971e+06
506.00	1.567407e+06
507.00	1.563151e+06
508.00	1.558723e+06
509.00	1.553360e+06
510.00	1.545615e+06
511.00	1.537313e+06
512.00	1.525510e+06
513.00	1.512420e+06
514.00	1.516491e+06
515.00	1.504324e+06
516.00	1.488708e+06
517.00	1.487424e+06
518.00	1.485560e+06
519.00	1.477652e+06
520.00	1.468480e+06
521.00	1.461132e+06
522.00	1.455998e+06
523.00	1.440590e+06
524.00	1.444448e+06
525.00	1.435661e+06
526.00	1.426506e+06
527.00	1.419167e+06
528.00	1.405801e+06
529.00	1.403617e+06
530.00	1.405633e+06
531.00	1.400885e+06
532.00	1.389894e+06
533.00	1.385671e+06
534.00	1.383840e+06
535.00	1.371788e+06
536.00	1.372892e+06
537.00	1.362859e+06
538.00	1.349178e+06
539.00	1.341515e+06
540.00	1.334597e+06
541.00	1.332445e+06
542.00	1.324216e+06
543.00	1.317326e+06
544.00	1.310959e+06
545.00	1.310623e+06
546.00	1.298219e+06
547.00	1.300408e+06
548.00	1.301158e+06
549.00	1.292996e+06
550.00	1.284427e+06
551.00	1.276820e+06
552.00	1.268793e+06
553.00	1.269168e+06
554.00	1.256674e+06
555.00	1.257398e+06
556.00	1.253591e+06
557.00	1.245068e+06
558.00	1.246890e+06
559.00	1.238239e+06
560.00	1.231681e+06
561.00	1.228421e+06
562.00	1.231166e+06
563.00	1.224647e+06
564.00	1.209480e+06
565.00	1.203861e+06
566.00	1.203331e+06
567.00	1.200266e+06
568.00	1.199529e+06
569.00	1.196099e+06
570.00	1.190143e+06
571.00	1.190124e+06
572.00	1.180909e+06
573.00	1.174801e+06
574.00	1.171374e+06
575.00	1.169947e+06
576.00	1.155143e+06
577.00	1.158739e+06
578.00	1.156556e+06
579.00	1.144513e+06
580.00	1.140374e+06
581.00	1.137696e+06
582.00	1.130126e+06
583.00	1.125468e+06
584.00	1.131216e+06
585.00	1.122756e+06
586.00	1.116119e+06
587.00	1.112524e+06
588.00	1.116318e+06
589.00	1.097790e+06
590.00	1.096899e+06
591.00	1.096352e+06
592.00	1.094586e+06
593.00	1.094212e+06
594.00	1.092989e+06
595.00	1.080027e+06
596.00	1.079481e+06
597.00	1.068562e+06
598.00	1.061779e+06
599.00	1.069098e+06
600.00	1.063846e+06
601.00	1.068705e+06
602.00	1.056944e+06
603.00	1.054770e+06
604.00	1.045805e+06
605.00	1.046935e+06
606.00	1.036189e+06
607.00	1.030135e+06
608.00	1.037957e+06
609.00	1.025646e+06
610.00	1.024039e+06
611.00	1.024383e+06
612.00	1.024574e+06
613.00	1.010113e+06
614.00	1.009765e+06
615.00	1.004402e+06
616.00	9.993718e+05
617.00	9.979447e+05
618.00	9.927447e+05
619.00	1.003107e+06
620.00	9.793955e+05
621.00	9.793585e+05
622.00	9.770580e+05
623.00	9.742095e+05
624.00	9.681808e+05
625.00	9.706390e+05
626.00	9.592767e+05
627.00	9.525118e+05
628.00	9.542709e+05
629.00	9.515919e+05
630.00	9.466915e+05
631.00	9.472048e+05
632.00	9.441345e+05
633.00	9.429000e+05
634.00	9.385923e+05
635.00	9.274291e+05
636.00	9.322113e+05
637.00	9.298989e+05
638.00	9.221100e+05
639.00	9.203673e+05
640.00	9.118260e+05
641.00	9.128399e+05
642.00	8.993496e+05
643.00	9.059603e+05
644.00	8.844552e+05
645.00	8.792997e+05
646.00	8.828433e+05
647.00	8.782604e+05
648.00	8.720753e+05
649.00	8.736861e+05
650.00	8.704664e+05
651.00	8.678227e+05
652.00	8.782438e+05
653.00	8.740061e+05
654.00	8.563154e+05
655.00	8.716909e+05
656.00	8.603062e+05
657.00	8.511573e+05
658.00	8.511629e+05
659.00	8.465821e+05
660.00	8.401556e+05
661.00	8.330840e+05
662.00	8.420648e+05
663.00	8.274080e+05
664.00	8.249903e+05
665.00	8.261876e+05
666.00	8.111567e+05
667.00	8.217901e+05
668.00	7.997163e+05
669.00	8.053338e+05
670.00	7.913310e+05
671.00	7.895951e+05
672.00	7.923328e+05
673.00	8.033886e+05
674.00	7.961372e+05
675.00	7.694673e+05
676.00	7.711090e+05
677.00	7.649415e+05
678.00	7.623122e+05
679.00	7.657482e+05
680.00	7.664618e+05
681.00	7.611119e+05
682.00	7.508660e+05
683.00	7.464756e+05
684.00	7.541941e+05
685.00	7.571289e+05
686.00	7.332087e+05
687.00	7.389724e+05
688.00	7.273124e+05
689.00	7.113050e+05
690.00	7.240238e+05
691.00	7.058990e+05
692.00	7.183689e+05
693.00	7.026980e+05
694.00	7.013529e+05
695.00	7.035775e+05
696.00	7.120124e+05
697.00	6.916851e+05
698.00	6.776180e+05
699.00	6.918465e+05
700.00	6.938903e+05
701.00	6.762126e+05
702.00	6.759985e+05
703.00	6.731410e+05
704.00	6.575221e+05
705.00	6.711659e+05
706.00	6.644236e+05
707.00	6.714602e+05
708.00	6.745330e+05
709.00	6.656046e+05
710.00	6.582706e+05
711.00	6.518125e+05
712.00	6.376754e+05
713.00	6.234302e+05
714.00	6.289506e+05
715.00	6.304501e+05
716.00	6.359750e+05
717.00	6.282673e+05
718.00	6.145747e+05
719.00	6.186738e+05
720.00	6.159074e+05
721.00	6.201755e+05
722.00	6.237292e+05
723.00	6.101556e+05
724.00	5.885319e+05
725.00	5.980404e+05
726.00	5.934553e+05
727.00	5.783243e+05
728.00	5.943439e+05
729.00	5.894830e+05
730.00	5.698110e+05
731.00	5.743268e+05
732.00	5.807346e+05
733.00	5.883371e+05
734.00	5.597895e+05
735.00	5.602300e+05
736.00	5.602367e+05
737.00	5.677122e+05
738.00	5.512987e+05
739.00	5.642809e+05
740.00	5.483624e+05
741.00	5.263760e+05
742.00	5.337597e+05
743.00	5.245543e+05
744.00	5.328558e+05
745.00	5.237545e+05
746.00	5.135605e+05
747.00	5.163195e+05
748.00	4.972966e+05
749.00	4.859986e+05
750.00	4.995592e+05
751.00	5.048498e+05
752.00	5.314060e+05
753.00	5.009505e+05
754.00	5.316770e+05
755.00	5.198010e+05
756.00	4.941564e+05
757.00	4.894511e+05
758.00	4.860076e+05
759.00	4.912444e+05
760.00	4.869555e+05
761.00	4.705299e+05
762.00	4.581483e+05
763.00	4.854912e+05
764.00	4.570876e+05
765.00	4.697275e+05
766.00	4.623339e+05
767.00	4.661922e+05
768.00	4.423071e+05
769.00	4.658963e+05
770.00	4.373410e+05
771.00	4.642791e+05
772.00	4.391450e+05
773.00	4.479564e+05
774.00	4.310891e+05
775.00	4.467517e+05
776.00	4.389106e+05
777.00	4.466786e+05
778.00	4.023149e+05
779.00	4.292861e+05
780.00	4.039428e+05
781.00	4.289577e+05
782.00	3.983224e+05
783.00	3.755860e+05
784.00	4.031709e+05
785.00	3.995017e+05
786.00	4.219561e+05
787.00	4.135859e+05
788.00	3.780743e+05
789.00	3.925239e+05
790.00	3.963080e+05
791.00	4.344284e+05
792.00	3.779955e+05
793.00	4.123991e+05
794.00	3.835946e+05
795.00	3.419501e+05
796.00	3.876951e+05
797.00	3.445053e+05
798.00	3.342837e+05
799.00	3.986168e+05
800.00	3.598964e+05
801.00	3.181313e+05
802.00	3.261264e+05
803.00	3.449125e+05
804.00	3.148742e+05
805.00	3.488269e+05
806.00	3.717894e+05
807.00	3.644379e+05
808.00	3.759707e+05
809.00	3.388603e+05
810.00	3.244473e+05
811.00	3.238901e+05
812.00	3.531398e+05
813.00	3.450740e+05
814.00	3.064644e+05
815.00	3.075921e+05
816.00	3.002180e+05
817.00	3.090721e+05
818.00	3.103502e+05
819.00	3.038544e+05
820.00	2.985515e+05
821.00	2.876161e+05
822.00	2.949683e+05
823.00	2.849132e+05
824.00	3.231584e+05
825.00	3.205439e+05
826.00	2.410772e+05
827.00	2.536122e+05
828.00	3.169269e+05
829.00	2.973355e+05
830.00	2.619308e+05
831.00	2.390058e+05
832.00	3.069035e+05
833.00	2.703136e+05
834.00	2.868882e+05
835.00	2.582256e+05
836.00	2.634642e+05
837.00	3.073590e+05
838.00	2.757591e+05
839.00	2.656598e+05
840.00	2.579005e+05
841.00	2.993739e+05
842.00	2.758831e+05
843.00	3.223732e+05
844.00	3.029682e+05
845.00	3.117016e+05
846.00	2.755244e+05
847.00	2.492697e+05
848.00	2.974994e+05
849.00	2.735485e+05
850.00	3.108921e+05
851.00	2.992087e+05
852.00	2.682240e+05
853.00	2.536410e+05
854.00	3.275413e+05
855.00	3.433775e+05
856.00	2.849020e+05
857.00	2.890459e+05
858.00	3.241410e+05
859.00	2.997005e+05
860.00	3.211038e+05
861.00	2.914761e+05
862.00	2.877525e+05
863.00	2.439984e+05
864.00	2.830637e+05
865.00	2.343854e+05
866.00	3.313611e+05
867.00	3.489249e+05
868.00	3.090661e+05
869.00	3.187508e+05
870.00	3.769148e+05
871.00	4.051944e+05
872.00	3.419090e+05
873.00	3.537317e+05
874.00	3.575766e+05
875.00	2.901313e+05
876.00	3.430203e+05
877.00	4.419141e+05
878.00	3.086666e+05
879.00	3.555221e+05
880.00	3.832487e+05
881.00	2.430523e+05
882.00	3.319775e+05
883.00	3.591616e+05
884.00	2.706216e+05
885.00	3.888655e+05
886.00	2.496843e+05
887.00	4.330404e+05
888.00	4.365413e+05
889.00	3.638171e+05
890.00	3.129567e+05
891.00	4.430394e+05
892.00	4.667414e+05
893.00	4.142714e+05
894.00	2.983884e+05
895.00	3.385057e+05
896.00	3.553193e+05
897.00	4.264912e+05
898.00	5.028263e+05
899.00	3.915839e+05
900.00	4.548012e+05
