/SCAPS Absorption Data - Sb2Se3
/lambda[nm]	alpha[m^-1]
300.00	3.699291e+06
301.00	4.964235e+06
302.00	4.612941e+06
303.00	4.253289e+06
304.00	5.414106e+06
305.00	5.591224e+06
306.00	5.077983e+06
307.00	5.676272e+06
308.00	5.571038e+06
309.00	5.938633e+06
310.00	5.262081e+06
311.00	5.209961e+06
312.00	5.682152e+06
313.00	6.325223e+06
314.00	6.425051e+06
315.00	6.347020e+06
316.00	6.516987e+06
317.00	6.686157e+06
318.00	6.607154e+06
319.00	6.573906e+06
320.00	6.237553e+06
321.00	6.199660e+06
322.00	6.324114e+06
323.00	6.566584e+06
324.00	6.509649e+06
325.00	6.691232e+06
326.00	6.762617e+06
327.00	6.771642e+06
328.00	6.539618e+06
329.00	6.430319e+06
330.00	6.367941e+06
331.00	6.456783e+06
332.00	6.526762e+06
333.00	6.649699e+06
334.00	6.659301e+06
335.00	6.599935e+06
336.00	6.629327e+06
337.00	6.660133e+06
338.00	6.625915e+06
339.00	6.518777e+06
340.00	6.490976e+06
341.00	6.467956e+06
342.00	6.454563e+06
343.00	6.432906e+06
344.00	6.445360e+06
345.00	6.527739e+06
346.00	6.607891e+06
347.00	6.588364e+06
348.00	6.568600e+06
349.00	6.514374e+06
350.00	6.530584e+06
351.00	6.537985e+06
352.00	6.553585e+06
353.00	6.456516e+06
354.00	6.538662e+06
355.00	6.537053e+06
356.00	6.530489e+06
357.00	6.478868e+06
358.00	6.481760e+06
359.00	6.563380e+06
360.00	6.569782e+06
361.00	6.508241e+06
362.00	6.476776e+06
363.00	6.494237e+06
364.00	6.479929e+06
365.00	6.468932e+06
366.00	6.450746e+06
367.00	6.482108e+06
368.00	6.546867e+06
369.00	6.515688e+06
370.00	6.478234e+06
371.00	6.515572e+06
372.00	6.518235e+06
373.00	6.512319e+06
374.00	6.484432e+06
375.00	6.484398e+06
376.00	6.495948e+06
377.00	6.514509e+06
378.00	6.481611e+06
379.00	6.453964e+06
380.00	6.460201e+06
381.00	6.467551e+06
382.00	6.483181e+06
383.00	6.472407e+06
384.00	6.472390e+06
385.00	6.506680e+06
386.00	6.482308e+06
387.00	6.430400e+06
388.00	6.399714e+06
389.00	6.408902e+06
390.00	6.398665e+06
391.00	6.417595e+06
392.00	6.419456e+06
393.00	6.431448e+06
394.00	6.424089e+06
395.00	6.421961e+06
396.00	6.412931e+06
397.00	6.386039e+06
398.00	6.354868e+06
399.00	6.363192e+06
400.00	6.393485e+06
401.00	6.411243e+06
402.00	6.406742e+06
403.00	6.427860e+06
404.00	6.434876e+06
405.00	6.428707e+06
406.00	6.396687e+06
407.00	6.422382e+06
408.00	6.447142e+06
409.00	6.475038e+06
410.00	6.451690e+06
411.00	6.445914e+06
412.00	6.433622e+06
413.00	6.451274e+06
414.00	6.409502e+06
415.00	6.392176e+06
416.00	6.411620e+06
417.00	6.439753e+06
418.00	6.431100e+06
419.00	6.422951e+06
420.00	6.449075e+06
421.00	6.448796e+06
422.00	6.444772e+06
423.00	6.397179e+06
424.00	6.425035e+06
425.00	6.427999e+06
426.00	6.456178e+06
427.00	6.456187e+06
428.00	6.475458e+06
429.00	6.474675e+06
430.00	6.482784e+06
431.00	6.463334e+06
432.00	6.470696e+06
433.00	6.486978e+06
434.00	6.501815e+06
435.00	6.494936e+06
436.00	6.486832e+06
437.00	6.480513e+06
438.00	6.503621e+06
439.00	6.519679e+06
440.00	6.517071e+06
441.00	6.518014e+06
442.00	6.526038e+06
443.00	6.540342e+06
444.00	6.524780e+06
445.00	6.537084e+06
446.00	6.564297e+06
447.00	6.579635e+06
448.00	6.570106e+06
449.00	6.564137e+06
450.00	6.569398e+06
451.00	6.569875e+06
452.00	6.575242e+06
453.00	6.575336e+06
454.00	6.585664e+06
455.00	6.595231e+06
456.00	6.617845e+06
457.00	6.624427e+06
458.00	6.621731e+06
459.00	6.618459e+06
460.00	6.619233e+06
461.00	6.621604e+06
462.00	6.623219e+06
463.00	6.629651e+06
464.00	6.657392e+06
465.00	6.674492e+06
466.00	6.652892e+06
467.00	6.650457e+06
468.00	6.661453e+06
469.00	6.662769e+06
470.00	6.655186e+06
471.00	6.670970e+06
472.00	6.671626e+06
473.00	6.666086e+06
474.00	6.660405e+06
475.00	6.658259e+06
476.00	6.642494e+06
477.00	6.651413e+06
478.00	6.671475e+06
479.00	6.687482e+06
480.00	6.693925e+06
481.00	6.704570e+06
482.00	6.698288e+06
483.00	6.710283e+06
484.00	6.701235e+06
485.00	6.704724e+06
486.00	6.724035e+06
487.00	6.754028e+06
488.00	6.740737e+06
489.00	6.736462e+06
490.00	6.731842e+06
491.00	6.724351e+06
492.00	6.729565e+06
493.00	6.728908e+06
494.00	6.720976e+06
495.00	6.724901e+06
496.00	6.745619e+06
497.00	6.727131e+06
498.00	6.717813e+06
499.00	6.719863e+06
500.00	6.730446e+06
501.00	6.720460e+06
502.00	6.727207e+06
503.00	6.735365e+06
504.00	6.752347e+06
505.00	6.752809e+06
506.00	6.762265e+06
507.00	6.754852e+06
508.00	6.760395e+06
509.00	6.771311e+06
510.00	6.770193e+06
511.00	6.769816e+06
512.00	6.780736e+06
513.00	6.805769e+06
514.00	6.816717e+06
515.00	6.834428e+06
516.00	6.828146e+06
517.00	6.823598e+06
518.00	6.824900e+06
519.00	6.805060e+06
520.00	6.791438e+06
521.00	6.792539e+06
522.00	6.783734e+06
523.00	6.773098e+06
524.00	6.771613e+06
525.00	6.768184e+06
526.00	6.777345e+06
527.00	6.817500e+06
528.00	6.817765e+06
529.00	6.835684e+06
530.00	6.875210e+06
531.00	6.871718e+06
532.00	6.844328e+06
533.00	6.839096e+06
534.00	6.850202e+06
535.00	6.827003e+06
536.00	6.834058e+06
537.00	6.855153e+06
538.00	6.875495e+06
539.00	6.870080e+06
540.00	6.864497e+06
541.00	6.851852e+06
542.00	6.835135e+06
543.00	6.825653e+06
544.00	6.818502e+06
545.00	6.825161e+06
546.00	6.827038e+06
547.00	6.838836e+06
548.00	6.856190e+06
549.00	6.863795e+06
550.00	6.854676e+06
551.00	6.881974e+06
552.00	6.887211e+06
553.00	6.865101e+06
554.00	6.855468e+06
555.00	6.856061e+06
556.00	6.846179e+06
557.00	6.831955e+06
558.00	6.837783e+06
559.00	6.831088e+06
560.00	6.844706e+06
561.00	6.834877e+06
562.00	6.834093e+06
563.00	6.819028e+06
564.00	6.826866e+06
565.00	6.835224e+06
566.00	6.847630e+06
567.00	6.853924e+06
568.00	6.876574e+06
569.00	6.882500e+06
570.00	6.882173e+06
571.00	6.872819e+06
572.00	6.862835e+06
573.00	6.841354e+06
574.00	6.850992e+06
575.00	6.851995e+06
576.00	6.852272e+06
577.00	6.847125e+06
578.00	6.875415e+06
579.00	6.889121e+06
580.00	6.878465e+06
581.00	6.870514e+06
582.00	6.890022e+06
583.00	6.885071e+06
584.00	6.871513e+06
585.00	6.867165e+06
586.00	6.875556e+06
587.00	6.876720e+06
588.00	6.890371e+06
589.00	6.885674e+06
590.00	6.894907e+06
591.00	6.896585e+06
592.00	6.904066e+06
593.00	6.888389e+06
594.00	6.879991e+06
595.00	6.872177e+06
596.00	6.863660e+06
597.00	6.868913e+06
598.00	6.873948e+06
599.00	6.863633e+06
600.00	6.855561e+06
601.00	6.874174e+06
602.00	6.880623e+06
603.00	6.857731e+06
604.00	6.868153e+06
605.00	6.871205e+06
606.00	6.893038e+06
607.00	6.897541e+06
608.00	6.901455e+06
609.00	6.906361e+06
610.00	6.922565e+06
611.00	6.917247e+06
612.00	6.911572e+06
613.00	6.904492e+06
614.00	6.897706e+06
615.00	6.913737e+06
616.00	6.914672e+06
617.00	6.866861e+06
618.00	6.842512e+06
619.00	6.853702e+06
620.00	6.865995e+06
621.00	6.840516e+06
622.00	6.844957e+06
623.00	6.874889e+06
624.00	6.873902e+06
625.00	6.855860e+06
626.00	6.852794e+06
627.00	6.846201e+06
628.00	6.859511e+06
629.00	6.886815e+06
630.00	6.855790e+06
631.00	6.823581e+06
632.00	6.831150e+06
633.00	6.842768e+06
634.00	6.826337e+06
635.00	6.826749e+06
636.00	6.849612e+06
637.00	6.883214e+06
638.00	6.887173e+06
639.00	6.866414e+06
640.00	6.866738e+06
641.00	6.883128e+06
642.00	6.917443e+06
643.00	6.932957e+06
644.00	6.914224e+06
645.00	6.927971e+06
646.00	6.926739e+06
647.00	6.882156e+06
648.00	6.858781e+06
649.00	6.856247e+06
650.00	6.873812e+06
651.00	6.908455e+06
652.00	6.923133e+06
653.00	6.906145e+06
654.00	6.905236e+06
655.00	6.917396e+06
656.00	6.901642e+06
657.00	6.880138e+06
658.00	6.889364e+06
659.00	6.929014e+06
660.00	6.915379e+06
661.00	6.891149e+06
662.00	6.880451e+06
663.00	6.884097e+06
664.00	6.914209e+06
665.00	6.923675e+06
666.00	6.927407e+06
667.00	6.915478e+06
668.00	6.862367e+06
669.00	6.811961e+06
670.00	6.872648e+06
671.00	6.927476e+06
672.00	6.951813e+06
673.00	6.954993e+06
674.00	6.903982e+06
675.00	6.843385e+06
676.00	6.845512e+06
677.00	6.805183e+06
678.00	6.759777e+06
679.00	6.815239e+06
680.00	6.820242e+06
681.00	6.777201e+06
682.00	6.776383e+06
683.00	6.795675e+06
684.00	6.849591e+06
685.00	6.948587e+06
686.00	6.914864e+06
687.00	6.912792e+06
688.00	6.973302e+06
689.00	6.919986e+06
690.00	6.896403e+06
691.00	6.872282e+06
692.00	6.840555e+06
693.00	6.837822e+06
694.00	6.935475e+06
695.00	6.923094e+06
696.00	6.949335e+06
697.00	6.968079e+06
698.00	7.009345e+06
699.00	7.004312e+06
700.00	6.881807e+06
701.00	6.805062e+06
702.00	6.802773e+06
703.00	6.789659e+06
704.00	6.851034e+06
705.00	6.848994e+06
706.00	6.871708e+06
707.00	6.891433e+06
708.00	6.865029e+06
709.00	6.810701e+06
710.00	6.785223e+06
711.00	6.779760e+06
712.00	6.799047e+06
713.00	6.986115e+06
714.00	7.012441e+06
715.00	7.017528e+06
716.00	7.006268e+06
717.00	7.199168e+06
718.00	7.036506e+06
719.00	7.000435e+06
720.00	7.059313e+06
721.00	7.228228e+06
722.00	7.119203e+06
723.00	7.180715e+06
724.00	7.098904e+06
725.00	7.118012e+06
726.00	7.109031e+06
727.00	7.125429e+06
728.00	7.222086e+06
729.00	7.396767e+06
730.00	7.403958e+06
731.00	7.360834e+06
732.00	7.429867e+06
733.00	7.370398e+06
734.00	7.244179e+06
735.00	7.180426e+06
736.00	7.216543e+06
737.00	7.250252e+06
738.00	7.274621e+06
739.00	7.240233e+06
740.00	7.279908e+06
741.00	7.363078e+06
742.00	7.368652e+06
743.00	7.245422e+06
744.00	7.144811e+06
745.00	7.152969e+06
746.00	7.252960e+06
747.00	7.079505e+06
748.00	7.045134e+06
749.00	7.119465e+06
750.00	7.167752e+06
751.00	7.109347e+06
752.00	7.200633e+06
753.00	7.103145e+06
754.00	7.121860e+06
755.00	7.291997e+06
756.00	7.198982e+06
757.00	7.195209e+06
758.00	7.240078e+06
759.00	7.411554e+06
760.00	7.431075e+06
761.00	7.356861e+06
762.00	7.232087e+06
763.00	7.375695e+06
764.00	7.429654e+06
765.00	7.258989e+06
766.00	7.325637e+06
767.00	7.266192e+06
768.00	7.273736e+06
769.00	7.240949e+06
770.00	7.179266e+06
771.00	7.120383e+06
772.00	7.303040e+06
773.00	7.512691e+06
774.00	7.442202e+06
775.00	7.376940e+06
776.00	7.311921e+06
777.00	7.364522e+06
778.00	7.217327e+06
779.00	7.092078e+06
780.00	7.073546e+06
781.00	7.092567e+06
782.00	7.139123e+06
783.00	7.079573e+06
784.00	6.975396e+06
785.00	6.980574e+06
786.00	7.062570e+06
787.00	7.064636e+06
788.00	6.978498e+06
789.00	7.025444e+06
790.00	7.093354e+06
791.00	7.239828e+06
792.00	7.138759e+06
793.00	7.083274e+06
794.00	7.178279e+06
795.00	7.265091e+06
796.00	7.023741e+06
797.00	6.854433e+06
798.00	6.913153e+06
799.00	6.868585e+06
800.00	6.964048e+06
801.00	6.956833e+06
802.00	6.887766e+06
803.00	6.884957e+06
804.00	6.979831e+06
805.00	6.819004e+06
806.00	6.699523e+06
807.00	6.762617e+06
808.00	6.897453e+06
809.00	6.912856e+06
810.00	6.746379e+06
811.00	6.714395e+06
812.00	6.758376e+06
813.00	6.694375e+06
814.00	6.626703e+06
815.00	6.643897e+06
816.00	6.765018e+06
817.00	6.774515e+06
818.00	6.845950e+06
819.00	6.802139e+06
820.00	6.892026e+06
821.00	6.864426e+06
822.00	7.009874e+06
823.00	6.969437e+06
824.00	6.975793e+06
825.00	6.809666e+06
826.00	6.825774e+06
827.00	6.848041e+06
828.00	6.849404e+06
829.00	6.706567e+06
830.00	6.718812e+06
831.00	6.733807e+06
832.00	6.740373e+06
833.00	6.719874e+06
834.00	6.570022e+06
835.00	6.566963e+06
836.00	6.437344e+06
837.00	6.523684e+06
838.00	6.535161e+06
839.00	6.694693e+06
840.00	6.468938e+06
841.00	6.331560e+06
842.00	6.017453e+06
843.00	6.258957e+06
844.00	6.567685e+06
845.00	6.867183e+06
846.00	6.722669e+06
847.00	6.634641e+06
848.00	6.025708e+06
849.00	6.072610e+06
850.00	6.404227e+06
851.00	7.330176e+06
852.00	7.633388e+06
853.00	6.857098e+06
854.00	5.856793e+06
855.00	5.483754e+06
856.00	5.625524e+06
857.00	5.835808e+06
858.00	6.188522e+06
859.00	5.731783e+06
860.00	4.960321e+06
861.00	4.417659e+06
862.00	4.833722e+06
863.00	6.153363e+06
864.00	6.210821e+06
865.00	6.301365e+06
866.00	6.291073e+06
867.00	5.506931e+06
868.00	4.712839e+06
869.00	4.404448e+06
870.00	4.690709e+06
871.00	6.154182e+06
872.00	6.085344e+06
873.00	6.031223e+06
874.00	5.981548e+06
875.00	6.108913e+06
876.00	5.287825e+06
877.00	5.217661e+06
878.00	5.757522e+06
879.00	6.386330e+06
880.00	5.787045e+06
881.00	5.143212e+06
882.00	5.258071e+06
883.00	5.551897e+06
884.00	5.788447e+06
885.00	6.008765e+06
886.00	6.110120e+06
887.00	6.095019e+06
888.00	6.112880e+06
889.00	6.173079e+06
890.00	6.220365e+06
891.00	5.863773e+06
892.00	5.338292e+06
893.00	5.056870e+06
894.00	4.877307e+06
895.00	4.534861e+06
896.00	4.883941e+06
897.00	5.049316e+06
898.00	5.267664e+06
899.00	5.268402e+06
900.00	5.159824e+06
901.00	4.970898e+06
902.00	4.864550e+06
903.00	4.730801e+06
904.00	4.649334e+06
905.00	4.566250e+06
906.00	4.325778e+06
907.00	4.341073e+06
908.00	4.116118e+06
909.00	4.068386e+06
910.00	4.040781e+06
911.00	3.972850e+06
912.00	3.987224e+06
913.00	4.093645e+06
914.00	4.088773e+06
915.00	4.136871e+06
916.00	4.199272e+06
917.00	4.056137e+06
918.00	4.089600e+06
919.00	4.036106e+06
920.00	3.933475e+06
921.00	3.859894e+06
922.00	3.846753e+06
923.00	3.777476e+06
924.00	3.816415e+06
925.00	3.887479e+06
926.00	3.899446e+06
927.00	3.863187e+06
928.00	3.772942e+06
929.00	3.710991e+06
930.00	3.607203e+06
931.00	3.606298e+06
932.00	3.504924e+06
933.00	3.584764e+06
934.00	3.596713e+06
935.00	3.677738e+06
936.00	3.670603e+06
937.00	3.739113e+06
938.00	3.663918e+06
939.00	3.659122e+06
940.00	3.605115e+06
941.00	3.520837e+06
942.00	3.471199e+06
943.00	3.498338e+06
944.00	3.455947e+06
945.00	3.414987e+06
946.00	3.423144e+06
947.00	3.411694e+06
948.00	3.388944e+06
949.00	3.350937e+06
950.00	3.317470e+06
951.00	3.300289e+06
952.00	3.269022e+06
953.00	3.173568e+06
954.00	3.124173e+06
955.00	3.108463e+06
956.00	3.074711e+06
957.00	3.054038e+06
958.00	3.032829e+06
959.00	3.032039e+06
960.00	3.042020e+06
961.00	3.024109e+06
962.00	2.983975e+06
963.00	2.973174e+06
964.00	2.940962e+06
965.00	2.879862e+06
966.00	2.826125e+06
967.00	2.787011e+06
968.00	2.741872e+06
969.00	2.757542e+06
970.00	2.725836e+06
971.00	2.717607e+06
972.00	2.720934e+06
973.00	2.718085e+06
974.00	2.681344e+06
975.00	2.644580e+06
976.00	2.623197e+06
977.00	2.588061e+06
978.00	2.550813e+06
979.00	2.501031e+06
980.00	2.496179e+06
981.00	2.447936e+06
982.00	2.430051e+06
983.00	2.380651e+06
984.00	2.351851e+06
985.00	2.315151e+06
986.00	2.298253e+06
987.00	2.256581e+06
988.00	2.244078e+06
989.00	2.198201e+06
990.00	2.163388e+06
991.00	2.113886e+06
992.00	2.057623e+06
993.00	1.988758e+06
994.00	1.939827e+06
995.00	1.891221e+06
996.00	1.833470e+06
997.00	1.786838e+06
998.00	1.742544e+06
999.00	1.694794e+06
1000.00	1.640587e+06
1001.00	1.583670e+06
1002.00	1.539030e+06
1003.00	1.493386e+06
1004.00	1.446813e+06
1005.00	1.392035e+06
1006.00	1.364539e+06
1007.00	1.311966e+06
1008.00	1.260176e+06
1009.00	1.193058e+06
1010.00	1.135220e+06
1011.00	1.062383e+06
1012.00	9.962715e+05
1013.00	9.272238e+05
1014.00	8.730329e+05
1015.00	8.126411e+05
1016.00	7.506403e+05
1017.00	7.003481e+05
1018.00	6.472114e+05
1019.00	5.750077e+05
1020.00	5.067842e+05
1021.00	4.358781e+05
1022.00	3.473885e+05
1023.00	2.679505e+05
1024.00	2.006386e+05
1025.00	1.206398e+05
1026.00	4.778784e+04
1036.00	1.644956e+06
1037.00	1.651685e+06
1038.00	1.660681e+06
1039.00	1.668455e+06
1040.00	1.676852e+06
1042.00	1.692294e+06
1043.00	1.699030e+06
1044.00	1.705970e+06
1047.00	1.724011e+06
1048.00	1.730731e+06
1049.00	1.738378e+06
1050.00	1.745212e+06
1051.00	1.752626e+06
1052.00	1.756303e+06
1053.00	1.762388e+06
1054.00	1.765329e+06
1055.00	1.769959e+06
1058.00	1.781944e+06
1059.00	1.784813e+06
1060.00	1.788710e+06
1062.00	1.796011e+06
1063.00	1.799085e+06
1064.00	1.801574e+06
1069.00	1.814938e+06
1070.00	1.816916e+06
1071.00	1.819238e+06
1074.00	1.821598e+06
1075.00	1.822287e+06
1079.00	1.827000e+06
1080.00	1.828251e+06
1081.00	1.828717e+06
1082.00	1.829824e+06
1083.00	1.830640e+06
1084.00	1.831748e+06
1085.00	1.831825e+06
1086.00	1.831318e+06
1088.00	1.829997e+06
1090.00	1.830937e+06
1091.00	1.831311e+06
1092.00	1.831031e+06
1093.00	1.832095e+06
1094.00	1.833200e+06
1096.00	1.832515e+06
1099.00	1.834166e+06
1100.00	1.836239e+06
1101.00	1.836372e+06
1102.00	1.834826e+06
1105.00	1.834422e+06
1106.00	1.833459e+06
1108.00	1.833211e+06
1110.00	1.832792e+06
1113.00	1.833073e+06
1114.00	1.832602e+06
1115.00	1.831471e+06
1116.00	1.831360e+06
1117.00	1.831018e+06
1118.00	1.830801e+06
1120.00	1.831632e+06
1122.00	1.829332e+06
1123.00	1.829521e+06
1124.00	1.828621e+06
1126.00	1.827770e+06
1127.00	1.827550e+06
1128.00	1.826213e+06
1129.00	1.826328e+06
1130.00	1.826316e+06
1132.00	1.827827e+06
1134.00	1.828360e+06
1135.00	1.827751e+06
1136.00	1.826351e+06
1137.00	1.826776e+06
1138.00	1.826614e+06
1141.00	1.828540e+06
1144.00	1.825918e+06
1145.00	1.826047e+06
1147.00	1.825355e+06
1148.00	1.825294e+06
1150.00	1.823088e+06
1151.00	1.823917e+06
1152.00	1.822903e+06
1153.00	1.824189e+06
1154.00	1.825603e+06
1155.00	1.826177e+06
1156.00	1.825664e+06
1158.00	1.824859e+06
1159.00	1.825579e+06
1160.00	1.826568e+06
1162.00	1.826845e+06
1163.00	1.826856e+06
1164.00	1.825146e+06
1165.00	1.824400e+06
1166.00	1.824254e+06
1167.00	1.823797e+06
1168.00	1.823404e+06
1170.00	1.823957e+06
1171.00	1.824140e+06
1173.00	1.825214e+06
1175.00	1.825918e+06
1176.00	1.825820e+06
1177.00	1.825852e+06
1178.00	1.823875e+06
1179.00	1.822917e+06
1182.00	1.823896e+06
1183.00	1.825577e+06
1184.00	1.826152e+06
1186.00	1.825888e+06
1188.00	1.825724e+06
1189.00	1.825798e+06
1190.00	1.825984e+06
1192.00	1.825661e+06
1193.00	1.825206e+06
1194.00	1.824708e+06
1195.00	1.825053e+06
1196.00	1.825348e+06
1197.00	1.825564e+06
1198.00	1.825160e+06
1199.00	1.826938e+06
1200.00	1.827492e+06
1205.00	1.825387e+06
1206.00	1.824902e+06
1207.00	1.824969e+06
1214.00	1.825683e+06
1216.00	1.824936e+06
1221.00	1.827880e+06
1222.00	1.827193e+06
1224.00	1.827623e+06
1225.00	1.827445e+06
1226.00	1.828842e+06
1227.00	1.829485e+06
1228.00	1.828600e+06
1229.00	1.827703e+06
1230.00	1.827318e+06
1231.00	1.825756e+06
1237.00	1.825910e+06
1238.00	1.826402e+06
1241.00	1.826762e+06
1242.00	1.826717e+06
1243.00	1.827500e+06
1244.00	1.827296e+06
1245.00	1.827141e+06
1246.00	1.828068e+06
1248.00	1.827791e+06
1249.00	1.827382e+06
1251.00	1.827180e+06
1252.00	1.828162e+06
1253.00	1.827480e+06
1254.00	1.828009e+06
1255.00	1.828871e+06
1256.00	1.828350e+06
1257.00	1.827442e+06
1258.00	1.827967e+06
1260.00	1.826988e+06
1261.00	1.827261e+06
1262.00	1.827176e+06
1263.00	1.826478e+06
1264.00	1.826589e+06
1265.00	1.825226e+06
1266.00	1.824615e+06
1268.00	1.824603e+06
1269.00	1.824735e+06
1270.00	1.825760e+06
1271.00	1.825546e+06
1272.00	1.825884e+06
1273.00	1.825084e+06
1274.00	1.825063e+06
1275.00	1.823908e+06
1276.00	1.824631e+06
1277.00	1.825568e+06
1278.00	1.826366e+06
1279.00	1.825872e+06
1280.00	1.825274e+06
1281.00	1.824997e+06
1283.00	1.824235e+06
1284.00	1.824073e+06
1285.00	1.823996e+06
1286.00	1.822689e+06
1288.00	1.819745e+06
1289.00	1.819685e+06
1291.00	1.819514e+06
1294.00	1.822035e+06
1295.00	1.822218e+06
1296.00	1.821934e+06
1297.00	1.821599e+06
1298.00	1.820690e+06
1300.00	1.820707e+06
1301.00	1.820324e+06
1303.00	1.820312e+06
1304.00	1.820693e+06
1306.00	1.819977e+06
1309.00	1.815976e+06
1310.00	1.816741e+06
1311.00	1.816151e+06
1312.00	1.816374e+06
1313.00	1.815921e+06
1315.00	1.814987e+06
1316.00	1.816135e+06
1318.00	1.815299e+06
1319.00	1.814775e+06
1320.00	1.814176e+06
1321.00	1.811958e+06
1322.00	1.811560e+06
1323.00	1.812233e+06
1324.00	1.811966e+06
1325.00	1.812053e+06
1326.00	1.811638e+06
1327.00	1.811827e+06
1328.00	1.811567e+06
1329.00	1.810557e+06
1330.00	1.811312e+06
1331.00	1.812285e+06
1332.00	1.813295e+06
1334.00	1.814018e+06
1335.00	1.812666e+06
1336.00	1.812698e+06
1337.00	1.809992e+06
1338.00	1.811591e+06
1340.00	1.810435e+06
1342.00	1.810649e+06
1343.00	1.810798e+06
1345.00	1.810924e+06
1346.00	1.810037e+06
1347.00	1.810116e+06
1349.00	1.805787e+06
1350.00	1.803661e+06
1351.00	1.803367e+06
1352.00	1.802342e+06
1353.00	1.801769e+06
1354.00	1.803427e+06
1355.00	1.803581e+06
1356.00	1.802855e+06
1358.00	1.802555e+06
1359.00	1.799906e+06
1360.00	1.798390e+06
1361.00	1.797953e+06
1362.00	1.797299e+06
1363.00	1.796605e+06
1364.00	1.797203e+06
1365.00	1.797433e+06
1367.00	1.797065e+06
1368.00	1.798129e+06
1369.00	1.797478e+06
1370.00	1.796761e+06
1371.00	1.798104e+06
1372.00	1.797766e+06
1374.00	1.799182e+06
1375.00	1.799375e+06
1376.00	1.797291e+06
1377.00	1.797804e+06
1378.00	1.795625e+06
1379.00	1.795352e+06
1380.00	1.795951e+06
1381.00	1.795867e+06
1382.00	1.794900e+06
1383.00	1.794257e+06
1384.00	1.793920e+06
1385.00	1.793896e+06
1386.00	1.793367e+06
1387.00	1.793207e+06
1388.00	1.793357e+06
1389.00	1.794781e+06
1393.00	1.797306e+06
1394.00	1.798548e+06
1395.00	1.798581e+06
1396.00	1.796913e+06
1397.00	1.797130e+06
1400.00	1.795012e+06
1401.00	1.797141e+06
1404.00	1.794783e+06
1405.00	1.795450e+06
1407.00	1.795554e+06
1408.00	1.795851e+06
1409.00	1.795155e+06
1410.00	1.795527e+06
1412.00	1.795279e+06
1413.00	1.796175e+06
1415.00	1.793645e+06
1416.00	1.792908e+06
1417.00	1.794284e+06
1418.00	1.797033e+06
1419.00	1.800849e+06
1420.00	1.802731e+06
1421.00	1.802817e+06
1422.00	1.805260e+06
1423.00	1.803774e+06
1424.00	1.801499e+06
1425.00	1.802924e+06
1426.00	1.803246e+06
1427.00	1.803018e+06
1428.00	1.802095e+06
1429.00	1.803804e+06
1430.00	1.802372e+06
1431.00	1.803874e+06
1432.00	1.802242e+06
1433.00	1.802810e+06
1434.00	1.800845e+06
1435.00	1.799946e+06
1438.00	1.798817e+06
1441.00	1.799468e+06
1444.00	1.803195e+06
1445.00	1.804343e+06
1446.00	1.804687e+06
1447.00	1.804691e+06
1450.00	1.801938e+06
1452.00	1.803487e+06
1453.00	1.806472e+06
1455.00	1.803925e+06
1456.00	1.802325e+06
1457.00	1.800032e+06
1458.00	1.799613e+06
1460.00	1.803258e+06
1461.00	1.804701e+06
1462.00	1.804814e+06
1467.00	1.801156e+06
1469.00	1.803143e+06
1471.00	1.804089e+06
1472.00	1.807263e+06
1473.00	1.808115e+06
1474.00	1.808265e+06
1475.00	1.807065e+06
1476.00	1.808526e+06
1477.00	1.808690e+06
1478.00	1.809029e+06
1479.00	1.809505e+06
1480.00	1.807777e+06
1481.00	1.806349e+06
1482.00	1.807708e+06
1483.00	1.807261e+06
1484.00	1.806510e+06
1485.00	1.808019e+06
1486.00	1.809599e+06
1487.00	1.808888e+06
1488.00	1.808999e+06
1489.00	1.808233e+06
1490.00	1.810661e+06
1491.00	1.812676e+06
1492.00	1.811707e+06
1493.00	1.813763e+06
1494.00	1.814820e+06
1495.00	1.811349e+06
1496.00	1.810016e+06
1497.00	1.811264e+06
1498.00	1.808992e+06
1499.00	1.808364e+06
1500.00	1.808041e+06
1501.00	1.806254e+06
1502.00	1.805830e+06
1503.00	1.807297e+06
1504.00	1.809318e+06
1507.00	1.812283e+06
1508.00	1.810951e+06
1509.00	1.807202e+06
1510.00	1.805082e+06
1511.00	1.806031e+06
1512.00	1.806517e+06
1513.00	1.808584e+06
1514.00	1.811173e+06
1515.00	1.813626e+06
1516.00	1.813726e+06
1517.00	1.816358e+06
1518.00	1.814321e+06
1519.00	1.813926e+06
1521.00	1.814864e+06
1522.00	1.814126e+06
1523.00	1.814163e+06
1524.00	1.813606e+06
1525.00	1.813460e+06
1526.00	1.812838e+06
1527.00	1.811526e+06
1528.00	1.809864e+06
1529.00	1.810955e+06
1530.00	1.811327e+06
1531.00	1.810512e+06
1532.00	1.810842e+06
1533.00	1.810819e+06
1534.00	1.809264e+06
1535.00	1.810015e+06
1536.00	1.808424e+06
1537.00	1.811387e+06
1538.00	1.815476e+06
1539.00	1.818222e+06
1540.00	1.820709e+06
1541.00	1.821713e+06
1542.00	1.818653e+06
1543.00	1.817174e+06
1544.00	1.816588e+06
1545.00	1.817142e+06
1546.00	1.816892e+06
1547.00	1.817945e+06
1550.00	1.820861e+06
1553.00	1.820834e+06
1554.00	1.821436e+06
1555.00	1.819428e+06
1556.00	1.820643e+06
1557.00	1.821025e+06
1560.00	1.825488e+06
1561.00	1.824720e+06
1562.00	1.828615e+06
1563.00	1.828970e+06
1564.00	1.828778e+06
1565.00	1.828277e+06
1566.00	1.828461e+06
1567.00	1.824545e+06
1568.00	1.823109e+06
1569.00	1.824957e+06
1570.00	1.823947e+06
1571.00	1.824549e+06
1572.00	1.826518e+06
1573.00	1.828490e+06
1574.00	1.830081e+06
1575.00	1.832406e+06
1576.00	1.830888e+06
1577.00	1.829161e+06
1578.00	1.827055e+06
1579.00	1.825689e+06
1580.00	1.826022e+06
1581.00	1.829160e+06
1582.00	1.831583e+06
1583.00	1.831719e+06
1584.00	1.832899e+06
1585.00	1.831984e+06
1586.00	1.828640e+06
1587.00	1.829491e+06
1588.00	1.833479e+06
1589.00	1.832109e+06
1590.00	1.830506e+06
1591.00	1.832671e+06
1592.00	1.830600e+06
1593.00	1.829718e+06
1594.00	1.830646e+06
1595.00	1.831603e+06
1596.00	1.829514e+06
1597.00	1.830053e+06
1598.00	1.829756e+06
1599.00	1.830080e+06
1600.00	1.830652e+06
