/SCAPS Absorption Data - Sheet1
/lambda[nm]	alpha[m^-1]
300.00	4.779600e+06
301.00	5.011396e+06
302.00	5.248817e+06
303.00	5.565405e+06
304.00	5.896195e+06
305.00	6.189812e+06
306.00	6.499149e+06
307.00	6.875491e+06
308.00	7.162187e+06
309.00	7.575992e+06
310.00	7.882246e+06
311.00	7.795317e+06
312.00	7.741856e+06
313.00	7.850648e+06
314.00	7.877669e+06
315.00	7.980177e+06
316.00	8.295876e+06
317.00	8.579407e+06
318.00	8.695032e+06
319.00	8.932312e+06
320.00	9.100557e+06
321.00	9.127462e+06
322.00	9.284482e+06
323.00	9.382741e+06
324.00	9.587397e+06
325.00	9.593054e+06
326.00	9.567362e+06
327.00	9.552307e+06
328.00	9.679269e+06
329.00	9.592043e+06
330.00	9.619303e+06
331.00	9.786592e+06
332.00	9.834463e+06
333.00	9.875377e+06
334.00	1.002983e+07
335.00	1.001596e+07
336.00	9.981425e+06
337.00	1.006622e+07
338.00	1.011454e+07
339.00	1.011676e+07
340.00	1.012747e+07
341.00	1.008527e+07
342.00	1.004496e+07
343.00	1.011558e+07
344.00	1.011906e+07
345.00	1.011383e+07
346.00	1.022994e+07
347.00	1.024306e+07
348.00	1.023048e+07
349.00	1.020836e+07
350.00	1.020265e+07
351.00	1.016112e+07
352.00	1.019221e+07
353.00	1.024841e+07
354.00	1.023074e+07
355.00	1.028157e+07
356.00	1.029660e+07
357.00	1.025931e+07
358.00	1.018131e+07
359.00	1.024669e+07
360.00	1.022144e+07
361.00	1.022263e+07
362.00	1.022913e+07
363.00	1.024909e+07
364.00	1.020539e+07
365.00	1.026379e+07
366.00	1.027866e+07
367.00	1.029123e+07
368.00	1.031909e+07
369.00	1.037285e+07
370.00	1.037478e+07
371.00	1.037638e+07
372.00	1.040589e+07
373.00	1.039803e+07
374.00	1.035015e+07
375.00	1.032200e+07
376.00	1.036306e+07
377.00	1.038393e+07
378.00	1.043644e+07
379.00	1.050166e+07
380.00	1.054493e+07
381.00	1.052340e+07
382.00	1.049124e+07
383.00	1.047546e+07
384.00	1.043510e+07
385.00	1.042858e+07
386.00	1.039630e+07
387.00	1.041429e+07
388.00	1.039536e+07
389.00	1.040791e+07
390.00	1.037532e+07
391.00	1.039223e+07
392.00	1.037617e+07
393.00	1.038636e+07
394.00	1.036755e+07
395.00	1.038424e+07
396.00	1.036536e+07
397.00	1.038878e+07
398.00	1.038757e+07
399.00	1.038621e+07
400.00	1.036800e+07
401.00	1.039977e+07
402.00	1.040269e+07
403.00	1.040223e+07
404.00	1.043803e+07
405.00	1.045302e+07
406.00	1.045164e+07
407.00	1.044437e+07
408.00	1.044401e+07
409.00	1.041044e+07
410.00	1.043197e+07
411.00	1.039229e+07
412.00	1.037576e+07
413.00	1.038862e+07
414.00	1.044465e+07
415.00	1.043931e+07
416.00	1.046870e+07
417.00	1.050524e+07
418.00	1.047573e+07
419.00	1.043500e+07
420.00	1.041345e+07
421.00	1.040746e+07
422.00	1.038629e+07
423.00	1.040206e+07
424.00	1.041556e+07
425.00	1.043813e+07
426.00	1.044568e+07
427.00	1.046810e+07
428.00	1.045867e+07
429.00	1.045918e+07
430.00	1.046599e+07
431.00	1.044582e+07
432.00	1.044970e+07
433.00	1.044949e+07
434.00	1.043651e+07
435.00	1.040872e+07
436.00	1.041777e+07
437.00	1.041705e+07
438.00	1.041673e+07
439.00	1.042129e+07
440.00	1.044309e+07
441.00	1.044645e+07
442.00	1.043523e+07
443.00	1.046415e+07
444.00	1.046155e+07
445.00	1.043325e+07
446.00	1.042911e+07
447.00	1.039690e+07
448.00	1.038821e+07
449.00	1.038824e+07
450.00	1.039637e+07
451.00	1.041068e+07
452.00	1.042428e+07
453.00	1.042724e+07
454.00	1.043787e+07
455.00	1.045429e+07
456.00	1.044253e+07
457.00	1.046281e+07
458.00	1.045076e+07
459.00	1.045204e+07
460.00	1.045271e+07
461.00	1.045971e+07
462.00	1.047397e+07
463.00	1.048229e+07
464.00	1.048989e+07
465.00	1.047972e+07
466.00	1.047485e+07
467.00	1.045110e+07
468.00	1.044035e+07
469.00	1.041738e+07
470.00	1.039691e+07
471.00	1.038027e+07
472.00	1.036592e+07
473.00	1.035829e+07
474.00	1.033916e+07
475.00	1.032578e+07
476.00	1.031733e+07
477.00	1.031559e+07
478.00	1.030874e+07
479.00	1.032943e+07
480.00	1.035117e+07
481.00	1.036891e+07
482.00	1.037883e+07
483.00	1.039485e+07
484.00	1.039666e+07
485.00	1.039268e+07
486.00	1.040592e+07
487.00	1.043044e+07
488.00	1.043246e+07
489.00	1.045437e+07
490.00	1.048866e+07
491.00	1.051526e+07
492.00	1.051574e+07
493.00	1.053644e+07
494.00	1.055317e+07
495.00	1.055172e+07
496.00	1.054330e+07
497.00	1.054196e+07
498.00	1.056861e+07
499.00	1.056363e+07
500.00	1.056788e+07
501.00	1.054986e+07
502.00	1.055573e+07
503.00	1.053930e+07
504.00	1.055493e+07
505.00	1.053822e+07
506.00	1.054971e+07
507.00	1.053863e+07
508.00	1.056151e+07
509.00	1.055167e+07
510.00	1.057177e+07
511.00	1.057041e+07
512.00	1.057453e+07
513.00	1.053659e+07
514.00	1.052659e+07
515.00	1.051139e+07
516.00	1.050919e+07
517.00	1.048817e+07
518.00	1.049328e+07
519.00	1.049786e+07
520.00	1.050503e+07
521.00	1.051071e+07
522.00	1.055296e+07
523.00	1.054940e+07
524.00	1.054781e+07
525.00	1.053897e+07
526.00	1.052303e+07
527.00	1.051054e+07
528.00	1.050391e+07
529.00	1.050653e+07
530.00	1.051416e+07
531.00	1.053560e+07
532.00	1.054020e+07
533.00	1.055451e+07
534.00	1.054377e+07
535.00	1.055013e+07
536.00	1.053395e+07
537.00	1.053308e+07
538.00	1.051344e+07
539.00	1.050986e+07
540.00	1.051081e+07
541.00	1.052749e+07
542.00	1.052017e+07
543.00	1.053961e+07
544.00	1.053743e+07
545.00	1.053910e+07
546.00	1.052882e+07
547.00	1.052064e+07
548.00	1.052001e+07
549.00	1.050719e+07
550.00	1.048896e+07
551.00	1.049347e+07
552.00	1.049595e+07
553.00	1.048644e+07
554.00	1.052315e+07
555.00	1.053606e+07
556.00	1.054156e+07
557.00	1.056252e+07
558.00	1.055282e+07
559.00	1.053535e+07
560.00	1.053659e+07
561.00	1.052006e+07
562.00	1.051203e+07
563.00	1.056481e+07
564.00	1.057413e+07
565.00	1.056861e+07
566.00	1.057464e+07
567.00	1.057460e+07
568.00	1.053192e+07
569.00	1.051329e+07
570.00	1.048142e+07
571.00	1.046136e+07
572.00	1.043862e+07
573.00	1.040069e+07
574.00	1.036581e+07
575.00	1.034945e+07
576.00	1.031785e+07
577.00	1.029026e+07
578.00	1.026307e+07
579.00	1.025256e+07
580.00	1.024151e+07
581.00	1.025452e+07
582.00	1.025023e+07
583.00	1.028526e+07
584.00	1.031083e+07
585.00	1.035532e+07
586.00	1.040584e+07
587.00	1.047093e+07
588.00	1.052785e+07
589.00	1.056654e+07
590.00	1.060621e+07
591.00	1.061544e+07
592.00	1.063003e+07
593.00	1.060487e+07
594.00	1.062784e+07
595.00	1.062444e+07
596.00	1.063139e+07
597.00	1.065999e+07
598.00	1.070096e+07
599.00	1.069349e+07
600.00	1.070213e+07
601.00	1.072118e+07
602.00	1.073703e+07
603.00	1.072167e+07
604.00	1.071890e+07
605.00	1.071578e+07
606.00	1.070298e+07
607.00	1.067052e+07
608.00	1.068595e+07
609.00	1.068813e+07
610.00	1.069744e+07
611.00	1.070343e+07
612.00	1.068653e+07
613.00	1.070287e+07
614.00	1.072636e+07
615.00	1.069996e+07
616.00	1.069459e+07
617.00	1.067812e+07
618.00	1.066997e+07
619.00	1.066665e+07
620.00	1.066532e+07
621.00	1.067577e+07
622.00	1.068776e+07
623.00	1.068239e+07
624.00	1.066188e+07
625.00	1.067087e+07
626.00	1.063823e+07
627.00	1.064874e+07
628.00	1.065356e+07
629.00	1.066318e+07
630.00	1.068616e+07
631.00	1.068806e+07
632.00	1.066689e+07
633.00	1.064557e+07
634.00	1.064542e+07
635.00	1.063523e+07
636.00	1.067028e+07
637.00	1.068750e+07
638.00	1.068086e+07
639.00	1.067099e+07
640.00	1.069688e+07
641.00	1.065322e+07
642.00	1.065212e+07
643.00	1.065400e+07
644.00	1.064951e+07
645.00	1.059682e+07
646.00	1.059553e+07
647.00	1.056353e+07
648.00	1.054797e+07
649.00	1.054449e+07
650.00	1.056693e+07
651.00	1.058013e+07
652.00	1.064397e+07
653.00	1.066295e+07
654.00	1.068442e+07
655.00	1.067167e+07
656.00	1.067766e+07
657.00	1.066401e+07
658.00	1.067549e+07
659.00	1.064839e+07
660.00	1.065634e+07
661.00	1.065145e+07
662.00	1.061122e+07
663.00	1.058165e+07
664.00	1.055781e+07
665.00	1.051419e+07
666.00	1.045510e+07
667.00	1.044253e+07
668.00	1.043027e+07
669.00	1.043226e+07
670.00	1.044503e+07
671.00	1.047436e+07
672.00	1.047788e+07
673.00	1.051202e+07
674.00	1.051816e+07
675.00	1.054089e+07
676.00	1.058134e+07
677.00	1.061006e+07
678.00	1.058891e+07
679.00	1.060773e+07
680.00	1.061001e+07
681.00	1.054931e+07
682.00	1.057226e+07
683.00	1.061003e+07
684.00	1.060729e+07
685.00	1.060960e+07
686.00	1.065684e+07
687.00	1.055844e+07
688.00	1.050693e+07
689.00	1.048807e+07
690.00	1.047663e+07
691.00	1.047910e+07
692.00	1.046712e+07
693.00	1.046160e+07
694.00	1.048929e+07
695.00	1.049966e+07
696.00	1.052361e+07
697.00	1.060710e+07
698.00	1.065371e+07
699.00	1.059461e+07
700.00	1.057700e+07
701.00	1.052042e+07
702.00	1.054716e+07
703.00	1.053206e+07
704.00	1.056029e+07
705.00	1.053049e+07
706.00	1.046504e+07
707.00	1.034849e+07
708.00	1.031177e+07
709.00	1.021931e+07
710.00	1.022686e+07
711.00	1.019632e+07
712.00	1.010934e+07
713.00	9.963238e+06
714.00	9.865683e+06
715.00	9.743094e+06
716.00	9.605722e+06
717.00	9.477385e+06
718.00	9.373608e+06
719.00	9.272313e+06
720.00	9.144964e+06
721.00	9.126700e+06
722.00	9.049290e+06
723.00	8.981980e+06
724.00	8.921735e+06
725.00	8.865858e+06
726.00	8.809796e+06
727.00	8.768471e+06
728.00	8.740331e+06
729.00	8.709304e+06
730.00	8.687331e+06
731.00	8.665233e+06
732.00	8.646094e+06
733.00	8.632020e+06
734.00	8.628751e+06
735.00	8.620830e+06
736.00	8.615591e+06
737.00	8.609560e+06
738.00	8.611843e+06
739.00	8.618817e+06
740.00	8.624571e+06
741.00	8.628826e+06
742.00	8.634971e+06
743.00	8.639135e+06
744.00	8.643547e+06
745.00	8.648227e+06
746.00	8.651861e+06
747.00	8.651208e+06
748.00	8.655010e+06
749.00	8.661731e+06
750.00	8.669392e+06
751.00	8.670144e+06
752.00	8.674690e+06
753.00	8.673953e+06
754.00	8.676727e+06
755.00	8.675203e+06
756.00	8.675217e+06
757.00	8.677536e+06
758.00	8.681144e+06
759.00	8.680184e+06
760.00	8.680105e+06
761.00	8.682675e+06
762.00	8.680703e+06
763.00	8.682525e+06
764.00	8.685069e+06
765.00	8.685574e+06
766.00	8.681513e+06
767.00	8.678399e+06
768.00	8.676812e+06
769.00	8.679305e+06
770.00	8.683646e+06
771.00	8.687237e+06
772.00	8.689961e+06
773.00	8.690697e+06
774.00	8.691266e+06
775.00	8.693971e+06
776.00	8.699710e+06
777.00	8.699425e+06
778.00	8.702657e+06
779.00	8.700440e+06
780.00	8.704785e+06
781.00	8.704902e+06
782.00	8.706320e+06
783.00	8.711285e+06
784.00	8.715566e+06
785.00	8.719222e+06
786.00	8.721065e+06
787.00	8.719694e+06
788.00	8.714781e+06
789.00	8.717351e+06
790.00	8.715117e+06
791.00	8.716431e+06
792.00	8.713520e+06
793.00	8.712275e+06
794.00	8.716147e+06
795.00	8.712530e+06
796.00	8.716735e+06
797.00	8.714865e+06
798.00	8.717525e+06
799.00	8.714278e+06
800.00	8.713417e+06
801.00	8.710998e+06
802.00	8.707169e+06
803.00	8.703487e+06
804.00	8.710826e+06
805.00	8.715617e+06
806.00	8.713974e+06
807.00	8.717608e+06
808.00	8.719338e+06
809.00	8.718294e+06
810.00	8.726019e+06
811.00	8.723465e+06
812.00	8.729176e+06
813.00	8.726078e+06
814.00	8.726736e+06
815.00	8.722272e+06
816.00	8.724028e+06
817.00	8.725058e+06
818.00	8.724948e+06
819.00	8.729115e+06
820.00	8.731031e+06
821.00	8.726736e+06
822.00	8.726628e+06
823.00	8.722248e+06
824.00	8.720836e+06
825.00	8.719204e+06
826.00	8.720517e+06
827.00	8.712086e+06
828.00	8.716738e+06
829.00	8.710263e+06
830.00	8.705597e+06
831.00	8.700191e+06
832.00	8.703094e+06
833.00	8.699393e+06
834.00	8.695952e+06
835.00	8.694757e+06
836.00	8.683313e+06
837.00	8.676969e+06
838.00	8.667502e+06
839.00	8.659501e+06
840.00	8.643360e+06
841.00	8.640330e+06
842.00	8.638108e+06
843.00	8.621159e+06
844.00	8.621125e+06
845.00	8.604517e+06
846.00	8.597670e+06
847.00	8.586753e+06
848.00	8.578410e+06
849.00	8.567466e+06
850.00	8.557543e+06
851.00	8.534750e+06
852.00	8.527546e+06
853.00	8.520472e+06
854.00	8.512581e+06
855.00	8.501165e+06
856.00	8.486266e+06
857.00	8.468625e+06
858.00	8.434399e+06
859.00	8.425761e+06
860.00	8.419674e+06
861.00	8.393305e+06
862.00	8.356149e+06
863.00	8.303205e+06
864.00	8.322412e+06
865.00	8.299350e+06
866.00	8.314266e+06
867.00	8.251545e+06
868.00	8.214400e+06
869.00	8.175960e+06
870.00	8.124069e+06
871.00	8.062571e+06
872.00	8.006258e+06
873.00	7.954267e+06
874.00	7.909664e+06
875.00	7.895931e+06
876.00	7.850375e+06
877.00	7.813089e+06
878.00	7.758478e+06
879.00	7.726551e+06
880.00	7.729365e+06
881.00	7.680576e+06
882.00	7.638616e+06
883.00	7.550709e+06
884.00	7.536741e+06
885.00	7.523125e+06
886.00	7.493734e+06
887.00	7.470597e+06
888.00	7.456723e+06
889.00	7.410350e+06
890.00	7.385150e+06
891.00	7.392016e+06
892.00	7.339025e+06
893.00	7.275741e+06
894.00	7.227171e+06
895.00	7.201715e+06
896.00	7.175471e+06
897.00	7.124725e+06
898.00	7.078424e+06
899.00	7.055884e+06
900.00	7.034867e+06
901.00	6.993235e+06
902.00	6.958115e+06
903.00	6.912432e+06
904.00	6.884879e+06
905.00	6.852912e+06
906.00	6.851337e+06
907.00	6.818643e+06
908.00	6.763473e+06
909.00	6.737275e+06
910.00	6.733036e+06
911.00	6.719918e+06
912.00	6.690345e+06
913.00	6.656264e+06
914.00	6.627786e+06
915.00	6.601352e+06
916.00	6.564597e+06
917.00	6.539357e+06
918.00	6.520095e+06
919.00	6.486630e+06
920.00	6.468358e+06
921.00	6.440388e+06
922.00	6.409334e+06
923.00	6.379228e+06
924.00	6.357824e+06
925.00	6.335377e+06
926.00	6.306420e+06
927.00	6.282076e+06
928.00	6.251298e+06
929.00	6.229445e+06
930.00	6.208271e+06
931.00	6.187909e+06
932.00	6.156338e+06
933.00	6.127594e+06
934.00	6.098609e+06
935.00	6.071219e+06
936.00	6.046361e+06
937.00	6.018777e+06
938.00	5.993559e+06
939.00	5.971702e+06
940.00	5.946613e+06
941.00	5.919870e+06
942.00	5.889076e+06
943.00	5.867706e+06
944.00	5.841375e+06
945.00	5.811878e+06
946.00	5.784946e+06
947.00	5.758077e+06
948.00	5.727578e+06
949.00	5.703695e+06
950.00	5.678962e+06
951.00	5.656500e+06
952.00	5.630705e+06
953.00	5.605856e+06
954.00	5.576718e+06
955.00	5.546442e+06
956.00	5.518208e+06
957.00	5.488722e+06
958.00	5.462096e+06
959.00	5.436922e+06
960.00	5.408678e+06
961.00	5.375975e+06
962.00	5.348047e+06
963.00	5.320417e+06
964.00	5.289638e+06
965.00	5.258595e+06
966.00	5.229791e+06
967.00	5.201404e+06
968.00	5.170499e+06
969.00	5.139720e+06
970.00	5.107975e+06
971.00	5.079084e+06
972.00	5.048054e+06
973.00	5.014234e+06
974.00	4.980876e+06
975.00	4.946413e+06
976.00	4.912742e+06
977.00	4.878336e+06
978.00	4.843724e+06
979.00	4.809357e+06
980.00	4.772812e+06
981.00	4.737662e+06
982.00	4.703669e+06
983.00	4.665486e+06
984.00	4.629379e+06
985.00	4.590826e+06
986.00	4.553602e+06
987.00	4.512683e+06
988.00	4.473398e+06
989.00	4.434849e+06
990.00	4.396898e+06
991.00	4.355825e+06
992.00	4.315514e+06
993.00	4.274170e+06
994.00	4.232013e+06
995.00	4.189756e+06
996.00	4.146724e+06
997.00	4.103664e+06
998.00	4.059770e+06
999.00	4.014259e+06
1000.00	3.969278e+06
1001.00	3.922680e+06
1002.00	3.876922e+06
1003.00	3.828217e+06
1004.00	3.780638e+06
1005.00	3.732000e+06
1006.00	3.682793e+06
1007.00	3.631824e+06
1008.00	3.582573e+06
1009.00	3.530833e+06
1010.00	3.479413e+06
1011.00	3.428070e+06
1012.00	3.375986e+06
1013.00	3.323567e+06
1014.00	3.269791e+06
1015.00	3.216386e+06
1016.00	3.162814e+06
1017.00	3.108544e+06
1018.00	3.053219e+06
1019.00	2.997511e+06
1020.00	2.942875e+06
1021.00	2.888762e+06
1022.00	2.832974e+06
1023.00	2.777272e+06
1024.00	2.721638e+06
1025.00	2.665368e+06
1026.00	2.610002e+06
1027.00	2.555284e+06
1028.00	2.498628e+06
1029.00	2.443198e+06
1030.00	2.388377e+06
1031.00	2.334012e+06
1032.00	2.279317e+06
1033.00	2.225213e+06
1034.00	2.171970e+06
1035.00	2.118980e+06
1036.00	2.066049e+06
1037.00	2.013573e+06
1038.00	1.961565e+06
1039.00	1.910816e+06
1040.00	1.859800e+06
1041.00	1.809947e+06
1042.00	1.760891e+06
1043.00	1.712992e+06
1044.00	1.664874e+06
1045.00	1.619065e+06
1046.00	1.573398e+06
1047.00	1.528574e+06
1048.00	1.484583e+06
1049.00	1.441550e+06
1050.00	1.400034e+06
1051.00	1.358901e+06
1052.00	1.319210e+06
1053.00	1.281302e+06
1054.00	1.244668e+06
1055.00	1.208592e+06
1056.00	1.173326e+06
1057.00	1.139548e+06
1058.00	1.107006e+06
1059.00	1.075221e+06
1060.00	1.044424e+06
1061.00	1.014516e+06
1062.00	9.861705e+05
1063.00	9.591843e+05
1064.00	9.323085e+05
1065.00	9.070664e+05
1066.00	8.835240e+05
1067.00	8.604131e+05
1068.00	8.385424e+05
1069.00	8.178470e+05
1070.00	7.980524e+05
1071.00	7.790870e+05
1072.00	7.609725e+05
1073.00	7.441872e+05
1074.00	7.283945e+05
1075.00	7.130819e+05
1076.00	6.988100e+05
1077.00	6.849707e+05
1078.00	6.731159e+05
1079.00	6.613429e+05
1080.00	6.493263e+05
1081.00	6.389186e+05
1082.00	6.291662e+05
1083.00	6.192271e+05
1084.00	6.099040e+05
1085.00	6.010990e+05
1086.00	5.929160e+05
1087.00	5.849296e+05
1088.00	5.772427e+05
1089.00	5.704348e+05
1090.00	5.636479e+05
1091.00	5.573090e+05
1092.00	5.514284e+05
1093.00	5.460801e+05
1094.00	5.412210e+05
1095.00	5.363400e+05
1096.00	5.318758e+05
1097.00	5.279074e+05
1098.00	5.236331e+05
1099.00	5.191099e+05
1100.00	5.154637e+05
1101.00	5.117473e+05
1102.00	5.088061e+05
1103.00	5.055660e+05
1104.00	5.027715e+05
1105.00	4.997752e+05
1106.00	4.966995e+05
1107.00	4.937601e+05
1108.00	4.911049e+05
1109.00	4.881780e+05
1110.00	4.848194e+05
1111.00	4.821036e+05
1112.00	4.789148e+05
1113.00	4.756790e+05
1114.00	4.725620e+05
1115.00	4.699492e+05
1116.00	4.673594e+05
1117.00	4.646942e+05
1118.00	4.620005e+05
1119.00	4.594155e+05
1120.00	4.564138e+05
1121.00	4.533556e+05
1122.00	4.504576e+05
1123.00	4.480578e+05
1124.00	4.460141e+05
1125.00	4.431040e+05
1126.00	4.411123e+05
1127.00	4.387184e+05
1128.00	4.359451e+05
1129.00	4.333728e+05
1130.00	4.310786e+05
1131.00	4.292220e+05
1132.00	4.271921e+05
1133.00	4.248145e+05
1134.00	4.223361e+05
1135.00	4.203091e+05
1136.00	4.177398e+05
1137.00	4.162178e+05
1138.00	4.139281e+05
1139.00	4.120537e+05
1140.00	4.096662e+05
1141.00	4.069523e+05
1142.00	4.047546e+05
1143.00	4.023709e+05
1144.00	4.007648e+05
1145.00	3.990041e+05
1146.00	3.968487e+05
1147.00	3.944487e+05
1148.00	3.920411e+05
1149.00	3.898589e+05
1150.00	3.880538e+05
1151.00	3.861997e+05
1152.00	3.846049e+05
1153.00	3.827075e+05
1154.00	3.803113e+05
1155.00	3.784499e+05
1156.00	3.769201e+05
1157.00	3.752683e+05
1158.00	3.737065e+05
1159.00	3.725774e+05
1160.00	3.713028e+05
1161.00	3.700247e+05
1162.00	3.688073e+05
1163.00	3.682413e+05
1164.00	3.675452e+05
1165.00	3.667926e+05
1166.00	3.655802e+05
1167.00	3.643785e+05
1168.00	3.632504e+05
1169.00	3.615982e+05
1170.00	3.605198e+05
1171.00	3.595344e+05
1172.00	3.584193e+05
1173.00	3.568808e+05
1174.00	3.558800e+05
1175.00	3.542585e+05
1176.00	3.525728e+05
1177.00	3.506707e+05
1178.00	3.491357e+05
1179.00	3.473354e+05
1180.00	3.456994e+05
1181.00	3.434613e+05
1182.00	3.412081e+05
1183.00	3.392208e+05
1184.00	3.370479e+05
1185.00	3.350636e+05
1186.00	3.332590e+05
1187.00	3.312259e+05
1188.00	3.289641e+05
1189.00	3.272539e+05
1190.00	3.254998e+05
1191.00	3.234886e+05
1192.00	3.220729e+05
1193.00	3.202176e+05
1194.00	3.183816e+05
1195.00	3.159184e+05
1196.00	3.140246e+05
1197.00	3.117242e+05
1198.00	3.101449e+05
1199.00	3.081906e+05
1200.00	3.063502e+05
1201.00	3.044448e+05
1202.00	3.027139e+05
1203.00	3.010622e+05
1204.00	2.991901e+05
1205.00	2.979069e+05
1206.00	2.961850e+05
1207.00	2.947221e+05
1208.00	2.925846e+05
1209.00	2.907133e+05
1210.00	2.888637e+05
1211.00	2.872964e+05
1212.00	2.859337e+05
1213.00	2.847576e+05
1214.00	2.835098e+05
1215.00	2.817150e+05
1216.00	2.804380e+05
1217.00	2.792393e+05
1218.00	2.782714e+05
1219.00	2.765166e+05
1220.00	2.751350e+05
1221.00	2.741897e+05
1222.00	2.730948e+05
1223.00	2.717164e+05
1224.00	2.699201e+05
1225.00	2.688179e+05
1226.00	2.677097e+05
1227.00	2.665842e+05
1228.00	2.654927e+05
1229.00	2.647042e+05
1230.00	2.628761e+05
1231.00	2.616703e+05
1232.00	2.606690e+05
1233.00	2.597370e+05
1234.00	2.587143e+05
1235.00	2.575590e+05
1236.00	2.558170e+05
1237.00	2.543690e+05
1238.00	2.528060e+05
1239.00	2.507537e+05
1240.00	2.488514e+05
1241.00	2.469616e+05
1242.00	2.446974e+05
1243.00	2.425687e+05
1244.00	2.406661e+05
1245.00	2.381657e+05
1246.00	2.353936e+05
1247.00	2.328439e+05
1248.00	2.301680e+05
1249.00	2.275713e+05
1250.00	2.249710e+05
1251.00	2.222661e+05
1252.00	2.193578e+05
1253.00	2.170434e+05
1254.00	2.137795e+05
1255.00	2.101279e+05
1256.00	2.073656e+05
1257.00	2.048400e+05
1258.00	2.016871e+05
1259.00	1.991349e+05
1260.00	1.960807e+05
1261.00	1.930033e+05
1262.00	1.904681e+05
1263.00	1.877639e+05
1264.00	1.852549e+05
1265.00	1.820370e+05
1266.00	1.787155e+05
1267.00	1.755261e+05
1268.00	1.717284e+05
1269.00	1.685173e+05
1270.00	1.654814e+05
1271.00	1.624846e+05
1272.00	1.596566e+05
1273.00	1.563391e+05
1274.00	1.529020e+05
1275.00	1.498187e+05
1276.00	1.464633e+05
1277.00	1.431568e+05
1278.00	1.402029e+05
1279.00	1.366073e+05
1280.00	1.329530e+05
1281.00	1.295023e+05
1282.00	1.261649e+05
1283.00	1.232480e+05
1284.00	1.198782e+05
1285.00	1.169610e+05
1286.00	1.137798e+05
1287.00	1.110078e+05
1288.00	1.083443e+05
1289.00	1.059599e+05
1290.00	1.029510e+05
1291.00	1.000195e+05
1292.00	9.785222e+04
1293.00	9.488932e+04
1294.00	9.234449e+04
1295.00	8.918662e+04
1296.00	8.590217e+04
1297.00	8.344386e+04
1298.00	8.094622e+04
1299.00	7.807436e+04
1300.00	7.484864e+04
1301.00	7.207540e+04
1302.00	6.927971e+04
1303.00	6.563544e+04
1304.00	6.216903e+04
1305.00	5.882325e+04
1306.00	5.485942e+04
1307.00	5.072161e+04
1308.00	4.658222e+04
1309.00	4.181246e+04
1310.00	3.719222e+04
1311.00	3.178762e+04
1312.00	2.647135e+04
1313.00	2.086495e+04
1314.00	1.513343e+04
1315.00	8.720108e+03
1316.00	2.640960e+03
